Time (s), AI0 (V), AI1 (V) 
0.000000E+0,1.781787E+0,1.111760E-1
1.000000E-3,1.781787E+0,1.124909E-1
2.000000E-3,1.781458E+0,1.128197E-1
3.000000E-3,1.780801E+0,1.118335E-1
4.000000E-3,1.780801E+0,1.108473E-1
5.000000E-3,1.780801E+0,1.098611E-1
6.000000E-3,1.780801E+0,1.088749E-1
7.000000E-3,1.780801E+0,1.075600E-1
8.000000E-3,1.780472E+0,1.052589E-1
9.000000E-3,1.779815E+0,1.046014E-1
1.000000E-2,1.779815E+0,1.046014E-1
1.100000E-2,1.779486E+0,1.049301E-1
1.200000E-2,1.779486E+0,1.055876E-1
1.300000E-2,1.779486E+0,1.072312E-1
1.400000E-2,1.779157E+0,1.075600E-1
1.500000E-2,1.779815E+0,1.092036E-1
1.600000E-2,1.778171E+0,1.101898E-1
1.700000E-2,1.779815E+0,1.115047E-1
1.800000E-2,1.778829E+0,1.111760E-1
1.900000E-2,1.778829E+0,1.121622E-1
2.000000E-2,1.779157E+0,1.111760E-1
2.100000E-2,1.778171E+0,1.108473E-1
2.200000E-2,1.778171E+0,1.078887E-1
2.300000E-2,1.777842E+0,1.072312E-1
2.400000E-2,1.777842E+0,1.059163E-1
2.500000E-2,1.777842E+0,1.046014E-1
2.600000E-2,1.776856E+0,1.032865E-1
2.700000E-2,1.776856E+0,1.032865E-1
2.800000E-2,1.776856E+0,1.042727E-1
2.900000E-2,1.776528E+0,1.049301E-1
3.000000E-2,1.776528E+0,1.062451E-1
3.100000E-2,1.776856E+0,1.075600E-1
3.200000E-2,1.776856E+0,1.082174E-1
3.300000E-2,1.776528E+0,1.098611E-1
3.400000E-2,1.776199E+0,1.118335E-1
3.500000E-2,1.776199E+0,1.111760E-1
3.600000E-2,1.775870E+0,1.111760E-1
3.700000E-2,1.775870E+0,1.101898E-1
3.800000E-2,1.775541E+0,1.085462E-1
3.900000E-2,1.775870E+0,1.072312E-1
4.000000E-2,1.775541E+0,1.062451E-1
4.100000E-2,1.775213E+0,1.046014E-1
4.200000E-2,1.775213E+0,1.036152E-1
4.300000E-2,1.774884E+0,1.026290E-1
4.400000E-2,1.774884E+0,1.026290E-1
4.500000E-2,1.775870E+0,1.036152E-1
4.600000E-2,1.774884E+0,1.042727E-1
4.700000E-2,1.774555E+0,1.055876E-1
4.800000E-2,1.774555E+0,1.069025E-1
4.900000E-2,1.774884E+0,1.082174E-1
5.000000E-2,1.774884E+0,1.095324E-1
5.100000E-2,1.773898E+0,1.101898E-1
5.200000E-2,1.774884E+0,1.108473E-1
5.300000E-2,1.773240E+0,1.101898E-1
5.400000E-2,1.774226E+0,1.088749E-1
5.500000E-2,1.773569E+0,1.078887E-1
5.600000E-2,1.773898E+0,1.069025E-1
5.700000E-2,1.773569E+0,1.052589E-1
5.800000E-2,1.774226E+0,1.039439E-1
5.900000E-2,1.773240E+0,1.019716E-1
6.000000E-2,1.773569E+0,1.009854E-1
6.100000E-2,1.773240E+0,9.999917E-2
6.200000E-2,1.773898E+0,9.901297E-2
6.300000E-2,1.772254E+0,9.704059E-2
6.400000E-2,1.773240E+0,9.473947E-2
6.500000E-2,1.773569E+0,9.309582E-2
6.600000E-2,1.772911E+0,9.112343E-2
6.700000E-2,1.773240E+0,8.882231E-2
6.800000E-2,1.773240E+0,8.652120E-2
6.900000E-2,1.772911E+0,8.487754E-2
7.000000E-2,1.772254E+0,8.290516E-2
7.100000E-2,1.772911E+0,8.159023E-2
7.200000E-2,1.772254E+0,7.994658E-2
7.300000E-2,1.773240E+0,7.863166E-2
7.400000E-2,1.772911E+0,7.863166E-2
7.500000E-2,1.772254E+0,7.797419E-2
7.600000E-2,1.772254E+0,7.863166E-2
7.700000E-2,1.772583E+0,7.896039E-2
7.800000E-2,1.772911E+0,8.093277E-2
7.900000E-2,1.771268E+0,8.290516E-2
8.000000E-2,1.772583E+0,8.454881E-2
8.100000E-2,1.772254E+0,8.619247E-2
8.200000E-2,1.772254E+0,8.816485E-2
8.300000E-2,1.772583E+0,8.980851E-2
8.400000E-2,1.771925E+0,9.112343E-2
8.500000E-2,1.772583E+0,9.112343E-2
8.600000E-2,1.771597E+0,9.079470E-2
8.700000E-2,1.772254E+0,9.079470E-2
8.800000E-2,1.772254E+0,8.882231E-2
8.900000E-2,1.771925E+0,8.717866E-2
9.000000E-2,1.771925E+0,8.684993E-2
9.100000E-2,1.772254E+0,8.520627E-2
9.200000E-2,1.771597E+0,8.422008E-2
9.300000E-2,1.771925E+0,8.487754E-2
9.400000E-2,1.771925E+0,8.422008E-2
9.500000E-2,1.772254E+0,8.454881E-2
9.600000E-2,1.772254E+0,8.619247E-2
9.700000E-2,1.771597E+0,8.750739E-2
9.800000E-2,1.772254E+0,8.947978E-2
9.900000E-2,1.772583E+0,9.112343E-2
1.000000E-1,1.772254E+0,9.276709E-2
1.010000E-1,1.772254E+0,9.408201E-2
1.020000E-1,1.772583E+0,9.375328E-2
1.030000E-1,1.771925E+0,9.342455E-2
1.040000E-1,1.771925E+0,9.309582E-2
1.050000E-1,1.771925E+0,9.112343E-2
1.060000E-1,1.772254E+0,9.112343E-2
1.070000E-1,1.771925E+0,8.980851E-2
1.080000E-1,1.772254E+0,8.882231E-2
1.090000E-1,1.772254E+0,8.717866E-2
1.100000E-1,1.771925E+0,8.684993E-2
1.110000E-1,1.771597E+0,8.849358E-2
1.120000E-1,1.772583E+0,8.882231E-2
1.130000E-1,1.771597E+0,9.013724E-2
1.140000E-1,1.772911E+0,9.145216E-2
1.150000E-1,1.772583E+0,9.342455E-2
1.160000E-1,1.772911E+0,9.506820E-2
1.170000E-1,1.771597E+0,9.572566E-2
1.180000E-1,1.772254E+0,9.704059E-2
1.190000E-1,1.771597E+0,9.736932E-2
1.200000E-1,1.771925E+0,9.769805E-2
1.210000E-1,1.772254E+0,9.539693E-2
1.220000E-1,1.771925E+0,9.473947E-2
1.230000E-1,1.772583E+0,9.375328E-2
1.240000E-1,1.771925E+0,9.210962E-2
1.250000E-1,1.771925E+0,9.112343E-2
1.260000E-1,1.772254E+0,9.079470E-2
1.270000E-1,1.771925E+0,9.079470E-2
1.280000E-1,1.772583E+0,9.210962E-2
1.290000E-1,1.772911E+0,9.243835E-2
1.300000E-1,1.772583E+0,9.375328E-2
1.310000E-1,1.772583E+0,9.539693E-2
1.320000E-1,1.771925E+0,9.736932E-2
1.330000E-1,1.772583E+0,9.934170E-2
1.340000E-1,1.773240E+0,9.999917E-2
1.350000E-1,1.773240E+0,1.006566E-1
1.360000E-1,1.772583E+0,1.009854E-1
1.370000E-1,1.773569E+0,1.003279E-1
1.380000E-1,1.772583E+0,9.901297E-2
1.390000E-1,1.772583E+0,9.868424E-2
1.400000E-1,1.772911E+0,9.671186E-2
1.410000E-1,1.773569E+0,9.572566E-2
1.420000E-1,1.772911E+0,9.473947E-2
1.430000E-1,1.773240E+0,9.408201E-2
1.440000E-1,1.773240E+0,9.473947E-2
1.450000E-1,1.772911E+0,9.605439E-2
1.460000E-1,1.772911E+0,9.736932E-2
1.470000E-1,1.773898E+0,9.835551E-2
1.480000E-1,1.773898E+0,1.003279E-1
1.490000E-1,1.773898E+0,1.019716E-1
1.500000E-1,1.773569E+0,1.032865E-1
1.510000E-1,1.774226E+0,1.039439E-1
1.520000E-1,1.773898E+0,1.042727E-1
1.530000E-1,1.773898E+0,1.032865E-1
1.540000E-1,1.773898E+0,1.042727E-1
1.550000E-1,1.774555E+0,1.032865E-1
1.560000E-1,1.774226E+0,1.023003E-1
1.570000E-1,1.774555E+0,1.009854E-1
1.580000E-1,1.774555E+0,9.999917E-2
1.590000E-1,1.774884E+0,9.967043E-2
1.600000E-1,1.774226E+0,9.934170E-2
1.610000E-1,1.774555E+0,9.999917E-2
1.620000E-1,1.775213E+0,1.013141E-1
1.630000E-1,1.775213E+0,1.026290E-1
1.640000E-1,1.775213E+0,1.046014E-1
1.650000E-1,1.775541E+0,1.065738E-1
1.660000E-1,1.775870E+0,1.085462E-1
1.670000E-1,1.775870E+0,1.101898E-1
1.680000E-1,1.775870E+0,1.105186E-1
1.690000E-1,1.775870E+0,1.115047E-1
1.700000E-1,1.775541E+0,1.108473E-1
1.710000E-1,1.775870E+0,1.105186E-1
1.720000E-1,1.776199E+0,1.092036E-1
1.730000E-1,1.775541E+0,1.078887E-1
1.740000E-1,1.776856E+0,1.078887E-1
1.750000E-1,1.776199E+0,1.072312E-1
1.760000E-1,1.775870E+0,1.065738E-1
1.770000E-1,1.776856E+0,1.062451E-1
1.780000E-1,1.775541E+0,1.072312E-1
1.790000E-1,1.776856E+0,1.092036E-1
1.800000E-1,1.777514E+0,1.105186E-1
1.810000E-1,1.777185E+0,1.121622E-1
1.820000E-1,1.776856E+0,1.138059E-1
1.830000E-1,1.777185E+0,1.167644E-1
1.840000E-1,1.777842E+0,1.170932E-1
1.850000E-1,1.777514E+0,1.184081E-1
1.860000E-1,1.777514E+0,1.180794E-1
1.870000E-1,1.778171E+0,1.184081E-1
1.880000E-1,1.778171E+0,1.180794E-1
1.890000E-1,1.778171E+0,1.164357E-1
1.900000E-1,1.778829E+0,1.154495E-1
1.910000E-1,1.778829E+0,1.147921E-1
1.920000E-1,1.778500E+0,1.141346E-1
1.930000E-1,1.778500E+0,1.144633E-1
1.940000E-1,1.778829E+0,1.144633E-1
1.950000E-1,1.779157E+0,1.157782E-1
1.960000E-1,1.778829E+0,1.174219E-1
1.970000E-1,1.779486E+0,1.193943E-1
1.980000E-1,1.779815E+0,1.213667E-1
1.990000E-1,1.780144E+0,1.233391E-1
2.000000E-1,1.780144E+0,1.249827E-1
2.010000E-1,1.780144E+0,1.266264E-1
2.020000E-1,1.780801E+0,1.272838E-1
2.030000E-1,1.780801E+0,1.272838E-1
2.040000E-1,1.780472E+0,1.279413E-1
2.050000E-1,1.781458E+0,1.269551E-1
2.060000E-1,1.781458E+0,1.262976E-1
2.070000E-1,1.781130E+0,1.256402E-1
2.080000E-1,1.781787E+0,1.239965E-1
2.090000E-1,1.782116E+0,1.243253E-1
2.100000E-1,1.781787E+0,1.249827E-1
2.110000E-1,1.781787E+0,1.256402E-1
2.120000E-1,1.782773E+0,1.272838E-1
2.130000E-1,1.783102E+0,1.292562E-1
2.140000E-1,1.782773E+0,1.318861E-1
2.150000E-1,1.783431E+0,1.338584E-1
2.160000E-1,1.783102E+0,1.358308E-1
2.170000E-1,1.783760E+0,1.384607E-1
2.180000E-1,1.783760E+0,1.407618E-1
2.190000E-1,1.783760E+0,1.410905E-1
2.200000E-1,1.784088E+0,1.410905E-1
2.210000E-1,1.784417E+0,1.414193E-1
2.220000E-1,1.784417E+0,1.417480E-1
2.230000E-1,1.785732E+0,1.417480E-1
2.240000E-1,1.786061E+0,1.410905E-1
2.250000E-1,1.785732E+0,1.414193E-1
2.260000E-1,1.785403E+0,1.420767E-1
2.270000E-1,1.786061E+0,1.427342E-1
2.280000E-1,1.786389E+0,1.453640E-1
2.290000E-1,1.787047E+0,1.476651E-1
2.300000E-1,1.786389E+0,1.489801E-1
2.310000E-1,1.787376E+0,1.529248E-1
2.320000E-1,1.787047E+0,1.552260E-1
2.330000E-1,1.787376E+0,1.578558E-1
2.340000E-1,1.787704E+0,1.601569E-1
2.350000E-1,1.788033E+0,1.624580E-1
2.360000E-1,1.788691E+0,1.644304E-1
2.370000E-1,1.788033E+0,1.647592E-1
2.380000E-1,1.789019E+0,1.650879E-1
2.390000E-1,1.789677E+0,1.667315E-1
2.400000E-1,1.788691E+0,1.670603E-1
2.410000E-1,1.789677E+0,1.673890E-1
2.420000E-1,1.789677E+0,1.683752E-1
2.430000E-1,1.790992E+0,1.700189E-1
2.440000E-1,1.790005E+0,1.726487E-1
2.450000E-1,1.790992E+0,1.749498E-1
2.460000E-1,1.791320E+0,1.782371E-1
2.470000E-1,1.790992E+0,1.818532E-1
2.480000E-1,1.791649E+0,1.861267E-1
2.490000E-1,1.792307E+0,1.894140E-1
2.500000E-1,1.792635E+0,1.923726E-1
2.510000E-1,1.792964E+0,1.969748E-1
2.520000E-1,1.792964E+0,2.005908E-1
2.530000E-1,1.792635E+0,2.025632E-1
2.540000E-1,1.793950E+0,2.048643E-1
2.550000E-1,1.793950E+0,2.068367E-1
2.560000E-1,1.793950E+0,2.078229E-1
2.570000E-1,1.794279E+0,2.104528E-1
2.580000E-1,1.795265E+0,2.134113E-1
2.590000E-1,1.795265E+0,2.170274E-1
2.600000E-1,1.794936E+0,2.199860E-1
2.610000E-1,1.795594E+0,2.239307E-1
2.620000E-1,1.796251E+0,2.282042E-1
2.630000E-1,1.796580E+0,2.357650E-1
2.640000E-1,1.796909E+0,2.420109E-1
2.650000E-1,1.797238E+0,2.479281E-1
2.660000E-1,1.797238E+0,2.554889E-1
2.670000E-1,1.797895E+0,2.630497E-1
2.680000E-1,1.798553E+0,2.696243E-1
2.690000E-1,1.798553E+0,2.761989E-1
2.700000E-1,1.798881E+0,2.827736E-1
2.710000E-1,1.799539E+0,2.893482E-1
2.720000E-1,1.799867E+0,2.959228E-1
2.730000E-1,1.800525E+0,3.024974E-1
2.740000E-1,1.800525E+0,3.100582E-1
2.750000E-1,1.800525E+0,3.169616E-1
2.760000E-1,1.800854E+0,3.261660E-1
2.770000E-1,1.801511E+0,3.360280E-1
2.780000E-1,1.801511E+0,3.458899E-1
2.790000E-1,1.802169E+0,3.567380E-1
2.800000E-1,1.802497E+0,3.675861E-1
2.810000E-1,1.802826E+0,3.800779E-1
2.820000E-1,1.804141E+0,3.928984E-1
2.830000E-1,1.804141E+0,4.060477E-1
2.840000E-1,1.803812E+0,4.191969E-1
2.850000E-1,1.804470E+0,4.307025E-1
2.860000E-1,1.804798E+0,4.435230E-1
2.870000E-1,1.805127E+0,4.550286E-1
2.880000E-1,1.806113E+0,4.675204E-1
2.890000E-1,1.806113E+0,4.790259E-1
2.900000E-1,1.806771E+0,4.911890E-1
2.910000E-1,1.806771E+0,5.040095E-1
2.920000E-1,1.807757E+0,5.151863E-1
2.930000E-1,1.807757E+0,5.299792E-1
2.940000E-1,1.808086E+0,5.441147E-1
2.950000E-1,1.808414E+0,5.595650E-1
2.960000E-1,1.809072E+0,5.750154E-1
2.970000E-1,1.809729E+0,5.904657E-1
2.980000E-1,1.810387E+0,6.065736E-1
2.990000E-1,1.810716E+0,6.230101E-1
3.000000E-1,1.810716E+0,6.391179E-1
3.010000E-1,1.812030E+0,6.548970E-1
3.020000E-1,1.812359E+0,6.693612E-1
3.030000E-1,1.812030E+0,6.828391E-1
3.040000E-1,1.812359E+0,6.956597E-1
3.050000E-1,1.812359E+0,7.088089E-1
3.060000E-1,1.813674E+0,7.209719E-1
3.070000E-1,1.814003E+0,7.328063E-1
3.080000E-1,1.814660E+0,7.446406E-1
3.090000E-1,1.814660E+0,7.561462E-1
3.100000E-1,1.815318E+0,7.673230E-1
3.110000E-1,1.815975E+0,7.784999E-1
3.120000E-1,1.815975E+0,7.900054E-1
3.130000E-1,1.815975E+0,8.018398E-1
3.140000E-1,1.817290E+0,8.126879E-1
3.150000E-1,1.817290E+0,8.218924E-1
3.160000E-1,1.817948E+0,8.314256E-1
3.170000E-1,1.818276E+0,8.389864E-1
3.180000E-1,1.818605E+0,8.452323E-1
3.190000E-1,1.819591E+0,8.511494E-1
3.200000E-1,1.819591E+0,8.537793E-1
3.210000E-1,1.819920E+0,8.557517E-1
3.220000E-1,1.820249E+0,8.560804E-1
3.230000E-1,1.821235E+0,8.557517E-1
3.240000E-1,1.822550E+0,8.537793E-1
3.250000E-1,1.821564E+0,8.508207E-1
3.260000E-1,1.821564E+0,8.462185E-1
3.270000E-1,1.822221E+0,8.412875E-1
3.280000E-1,1.822879E+0,8.363565E-1
3.290000E-1,1.824194E+0,8.307681E-1
3.300000E-1,1.823536E+0,8.235360E-1
3.310000E-1,1.824522E+0,8.156465E-1
3.320000E-1,1.824522E+0,8.070995E-1
3.330000E-1,1.824851E+0,7.962513E-1
3.340000E-1,1.825837E+0,7.850745E-1
3.350000E-1,1.826495E+0,7.719252E-1
3.360000E-1,1.825837E+0,7.568036E-1
3.370000E-1,1.827810E+0,7.406958E-1
3.380000E-1,1.827481E+0,7.236018E-1
3.390000E-1,1.828467E+0,7.048641E-1
3.400000E-1,1.829125E+0,6.854690E-1
3.410000E-1,1.829125E+0,6.650877E-1
3.420000E-1,1.829453E+0,6.433914E-1
3.430000E-1,1.830111E+0,6.230101E-1
3.440000E-1,1.829782E+0,6.019713E-1
3.450000E-1,1.831097E+0,5.812613E-1
3.460000E-1,1.831426E+0,5.589076E-1
3.470000E-1,1.831754E+0,5.362251E-1
3.480000E-1,1.833069E+0,5.145289E-1
3.490000E-1,1.833069E+0,4.908603E-1
3.500000E-1,1.833398E+0,4.665342E-1
3.510000E-1,1.834055E+0,4.418793E-1
3.520000E-1,1.834384E+0,4.165671E-1
3.530000E-1,1.834384E+0,3.889537E-1
3.540000E-1,1.835370E+0,3.613403E-1
3.550000E-1,1.836357E+0,3.330694E-1
3.560000E-1,1.836028E+0,3.031549E-1
3.570000E-1,1.837014E+0,2.752127E-1
3.580000E-1,1.837672E+0,2.449695E-1
3.590000E-1,1.837672E+0,2.150550E-1
3.600000E-1,1.838658E+0,1.857979E-1
3.610000E-1,1.839644E+0,1.581845E-1
3.620000E-1,1.839644E+0,1.302424E-1
3.630000E-1,1.839644E+0,1.016428E-1
3.640000E-1,1.840959E+0,7.534435E-2
3.650000E-1,1.840630E+0,4.805968E-2
3.660000E-1,1.841616E+0,2.077502E-2
3.670000E-1,1.841945E+0,-5.852188E-3
3.680000E-1,1.842274E+0,-3.215066E-2
3.690000E-1,1.842602E+0,-5.976406E-2
3.700000E-1,1.843589E+0,-8.671999E-2
3.710000E-1,1.843260E+0,-1.126897E-1
3.720000E-1,1.844575E+0,-1.399744E-1
3.730000E-1,1.844904E+0,-1.656154E-1
3.740000E-1,1.845561E+0,-1.912564E-1
3.750000E-1,1.845890E+0,-2.145963E-1
3.760000E-1,1.846547E+0,-2.389224E-1
3.770000E-1,1.847205E+0,-2.602899E-1
3.780000E-1,1.847533E+0,-2.809999E-1
3.790000E-1,1.847862E+0,-3.003951E-1
3.800000E-1,1.848520E+0,-3.191327E-1
3.810000E-1,1.849506E+0,-3.355693E-1
3.820000E-1,1.849506E+0,-3.523345E-1
3.830000E-1,1.850492E+0,-3.681136E-1
3.840000E-1,1.850821E+0,-3.832353E-1
3.850000E-1,1.851807E+0,-3.976994E-1
3.860000E-1,1.852136E+0,-4.121636E-1
3.870000E-1,1.852136E+0,-4.259703E-1
3.880000E-1,1.852464E+0,-4.391195E-1
3.890000E-1,1.853122E+0,-4.516113E-1
3.900000E-1,1.853779E+0,-4.637743E-1
3.910000E-1,1.854437E+0,-4.746224E-1
3.920000E-1,1.855423E+0,-4.838269E-1
3.930000E-1,1.855423E+0,-4.933601E-1
3.940000E-1,1.856080E+0,-4.999347E-1
3.950000E-1,1.857067E+0,-5.058519E-1
3.960000E-1,1.857724E+0,-5.104541E-1
3.970000E-1,1.857724E+0,-5.137414E-1
3.980000E-1,1.859368E+0,-5.173574E-1
3.990000E-1,1.858710E+0,-5.196586E-1
4.000000E-1,1.860025E+0,-5.216310E-1
4.010000E-1,1.861011E+0,-5.236033E-1
4.020000E-1,1.861011E+0,-5.259045E-1
4.030000E-1,1.861340E+0,-5.282056E-1
4.040000E-1,1.862326E+0,-5.301780E-1
4.050000E-1,1.862326E+0,-5.324791E-1
4.060000E-1,1.862984E+0,-5.341227E-1
4.070000E-1,1.863970E+0,-5.364238E-1
4.080000E-1,1.864299E+0,-5.370813E-1
4.090000E-1,1.864956E+0,-5.380675E-1
4.100000E-1,1.864956E+0,-5.374100E-1
4.110000E-1,1.865942E+0,-5.364238E-1
4.120000E-1,1.866600E+0,-5.351089E-1
4.130000E-1,1.867257E+0,-5.324791E-1
4.140000E-1,1.867586E+0,-5.311641E-1
4.150000E-1,1.868572E+0,-5.275481E-1
4.160000E-1,1.869230E+0,-5.249183E-1
4.170000E-1,1.869230E+0,-5.226171E-1
4.180000E-1,1.869558E+0,-5.203160E-1
4.190000E-1,1.870216E+0,-5.180149E-1
4.200000E-1,1.871202E+0,-5.167000E-1
4.210000E-1,1.871202E+0,-5.163713E-1
4.220000E-1,1.872846E+0,-5.153851E-1
4.230000E-1,1.873175E+0,-5.150563E-1
4.240000E-1,1.874161E+0,-5.137414E-1
4.250000E-1,1.874489E+0,-5.134127E-1
4.260000E-1,1.874161E+0,-5.124265E-1
4.270000E-1,1.874818E+0,-5.104541E-1
4.280000E-1,1.876133E+0,-5.071668E-1
4.290000E-1,1.877119E+0,-5.045369E-1
4.300000E-1,1.876462E+0,-5.015784E-1
4.310000E-1,1.877777E+0,-4.969761E-1
4.320000E-1,1.879092E+0,-4.943463E-1
4.330000E-1,1.878763E+0,-4.907302E-1
4.340000E-1,1.879749E+0,-4.877717E-1
4.350000E-1,1.880407E+0,-4.848131E-1
4.360000E-1,1.881064E+0,-4.828407E-1
4.370000E-1,1.881064E+0,-4.811971E-1
4.380000E-1,1.881722E+0,-4.798821E-1
4.390000E-1,1.882379E+0,-4.788959E-1
4.400000E-1,1.883036E+0,-4.779097E-1
4.410000E-1,1.883365E+0,-4.772523E-1
4.420000E-1,1.884351E+0,-4.759374E-1
4.430000E-1,1.885009E+0,-4.742937E-1
4.440000E-1,1.885009E+0,-4.723213E-1
4.450000E-1,1.886324E+0,-4.693627E-1
4.460000E-1,1.886981E+0,-4.664042E-1
4.470000E-1,1.887639E+0,-4.621307E-1
4.480000E-1,1.888296E+0,-4.588434E-1
4.490000E-1,1.888954E+0,-4.548986E-1
4.500000E-1,1.888954E+0,-4.522687E-1
4.510000E-1,1.889611E+0,-4.489814E-1
4.520000E-1,1.890926E+0,-4.463516E-1
4.530000E-1,1.890269E+0,-4.450367E-1
4.540000E-1,1.891583E+0,-4.430643E-1
4.550000E-1,1.892570E+0,-4.420781E-1
4.560000E-1,1.892241E+0,-4.407632E-1
4.570000E-1,1.892570E+0,-4.401057E-1
4.580000E-1,1.893556E+0,-4.391195E-1
4.590000E-1,1.894542E+0,-4.378046E-1
4.600000E-1,1.894871E+0,-4.358322E-1
4.610000E-1,1.895528E+0,-4.338598E-1
4.620000E-1,1.896186E+0,-4.305725E-1
4.630000E-1,1.897501E+0,-4.272852E-1
4.640000E-1,1.897501E+0,-4.233404E-1
4.650000E-1,1.898158E+0,-4.203818E-1
4.660000E-1,1.898816E+0,-4.157796E-1
4.670000E-1,1.899802E+0,-4.124923E-1
4.680000E-1,1.899802E+0,-4.101912E-1
4.690000E-1,1.900788E+0,-4.082188E-1
4.700000E-1,1.902432E+0,-4.065751E-1
4.710000E-1,1.901774E+0,-4.046028E-1
4.720000E-1,1.902103E+0,-4.039453E-1
4.730000E-1,1.902760E+0,-4.032878E-1
4.740000E-1,1.903747E+0,-4.019729E-1
4.750000E-1,1.904404E+0,-4.006580E-1
4.760000E-1,1.904733E+0,-3.993431E-1
4.770000E-1,1.905719E+0,-3.967132E-1
4.780000E-1,1.906376E+0,-3.947408E-1
4.790000E-1,1.907034E+0,-3.911248E-1
4.800000E-1,1.907363E+0,-3.875088E-1
4.810000E-1,1.908349E+0,-3.842214E-1
4.820000E-1,1.908677E+0,-3.809341E-1
4.830000E-1,1.909335E+0,-3.773181E-1
4.840000E-1,1.910650E+0,-3.743595E-1
4.850000E-1,1.910650E+0,-3.720584E-1
4.860000E-1,1.910979E+0,-3.694286E-1
4.870000E-1,1.911307E+0,-3.681136E-1
4.880000E-1,1.912622E+0,-3.671274E-1
4.890000E-1,1.912622E+0,-3.664700E-1
4.900000E-1,1.913280E+0,-3.654838E-1
4.910000E-1,1.914266E+0,-3.651551E-1
4.920000E-1,1.914923E+0,-3.635114E-1
4.930000E-1,1.914923E+0,-3.618677E-1
4.940000E-1,1.915581E+0,-3.592379E-1
4.950000E-1,1.916567E+0,-3.559506E-1
4.960000E-1,1.917553E+0,-3.529920E-1
4.970000E-1,1.917553E+0,-3.497047E-1
4.980000E-1,1.918868E+0,-3.467461E-1
4.990000E-1,1.919197E+0,-3.424726E-1
5.000000E-1,1.920183E+0,-3.395140E-1
5.010000E-1,1.920512E+0,-3.365555E-1
5.020000E-1,1.921827E+0,-3.345831E-1
5.030000E-1,1.921827E+0,-3.329394E-1
5.040000E-1,1.922155E+0,-3.319532E-1
5.050000E-1,1.922484E+0,-3.299808E-1
5.060000E-1,1.923470E+0,-3.296521E-1
5.070000E-1,1.924128E+0,-3.283372E-1
5.080000E-1,1.924128E+0,-3.273510E-1
5.090000E-1,1.925772E+0,-3.266935E-1
5.100000E-1,1.926100E+0,-3.243924E-1
5.110000E-1,1.926758E+0,-3.214338E-1
5.120000E-1,1.927415E+0,-3.184753E-1
5.130000E-1,1.928073E+0,-3.145305E-1
5.140000E-1,1.929059E+0,-3.109145E-1
5.150000E-1,1.929716E+0,-3.079559E-1
5.160000E-1,1.929716E+0,-3.033536E-1
5.170000E-1,1.931031E+0,-3.000663E-1
5.180000E-1,1.931360E+0,-2.971078E-1
5.190000E-1,1.931689E+0,-2.941492E-1
5.200000E-1,1.931689E+0,-2.928343E-1
5.210000E-1,1.932675E+0,-2.908619E-1
5.220000E-1,1.933661E+0,-2.898757E-1
5.230000E-1,1.933990E+0,-2.888895E-1
5.240000E-1,1.934319E+0,-2.875746E-1
5.250000E-1,1.934976E+0,-2.859309E-1
5.260000E-1,1.935305E+0,-2.836298E-1
5.270000E-1,1.935962E+0,-2.816574E-1
5.280000E-1,1.937606E+0,-2.796850E-1
5.290000E-1,1.937935E+0,-2.760690E-1
5.300000E-1,1.938263E+0,-2.727817E-1
5.310000E-1,1.938263E+0,-2.698231E-1
5.320000E-1,1.938921E+0,-2.658783E-1
5.330000E-1,1.939907E+0,-2.625910E-1
5.340000E-1,1.940564E+0,-2.593037E-1
5.350000E-1,1.940893E+0,-2.570026E-1
5.360000E-1,1.941222E+0,-2.556877E-1
5.370000E-1,1.941551E+0,-2.537153E-1
5.380000E-1,1.942208E+0,-2.537153E-1
5.390000E-1,1.942537E+0,-2.530578E-1
5.400000E-1,1.943523E+0,-2.514142E-1
5.410000E-1,1.944180E+0,-2.517429E-1
5.420000E-1,1.943852E+0,-2.507567E-1
5.430000E-1,1.944838E+0,-2.497705E-1
5.440000E-1,1.945824E+0,-2.484556E-1
5.450000E-1,1.946482E+0,-2.458257E-1
5.460000E-1,1.947139E+0,-2.422097E-1
5.470000E-1,1.947468E+0,-2.402373E-1
5.480000E-1,1.947468E+0,-2.369500E-1
5.490000E-1,1.948783E+0,-2.339914E-1
5.500000E-1,1.949769E+0,-2.316903E-1
5.510000E-1,1.950426E+0,-2.293892E-1
5.520000E-1,1.950098E+0,-2.270881E-1
5.530000E-1,1.950426E+0,-2.264306E-1
5.540000E-1,1.951084E+0,-2.257732E-1
5.550000E-1,1.951413E+0,-2.251157E-1
5.560000E-1,1.953056E+0,-2.254444E-1
5.570000E-1,1.952399E+0,-2.251157E-1
5.580000E-1,1.953385E+0,-2.247870E-1
5.590000E-1,1.953714E+0,-2.238008E-1
5.600000E-1,1.954371E+0,-2.231433E-1
5.610000E-1,1.955029E+0,-2.208422E-1
5.620000E-1,1.954371E+0,-2.195273E-1
5.630000E-1,1.956344E+0,-2.155825E-1
5.640000E-1,1.956344E+0,-2.139388E-1
5.650000E-1,1.957658E+0,-2.106515E-1
5.660000E-1,1.957658E+0,-2.080217E-1
5.670000E-1,1.958645E+0,-2.050631E-1
5.680000E-1,1.959302E+0,-2.034195E-1
5.690000E-1,1.959631E+0,-2.024333E-1
5.700000E-1,1.960288E+0,-2.024333E-1
5.710000E-1,1.959302E+0,-2.017758E-1
5.720000E-1,1.960946E+0,-2.014471E-1
5.730000E-1,1.961603E+0,-2.011183E-1
5.740000E-1,1.962261E+0,-2.017758E-1
5.750000E-1,1.962918E+0,-2.007896E-1
5.760000E-1,1.962918E+0,-2.004609E-1
5.770000E-1,1.963247E+0,-1.994747E-1
5.780000E-1,1.964233E+0,-1.978310E-1
5.790000E-1,1.964233E+0,-1.955299E-1
5.800000E-1,1.964233E+0,-1.929001E-1
5.810000E-1,1.964891E+0,-1.896128E-1
5.820000E-1,1.965877E+0,-1.869829E-1
5.830000E-1,1.966863E+0,-1.843531E-1
5.840000E-1,1.966863E+0,-1.827094E-1
5.850000E-1,1.967520E+0,-1.807370E-1
5.860000E-1,1.967520E+0,-1.800796E-1
5.870000E-1,1.967520E+0,-1.790934E-1
5.880000E-1,1.967849E+0,-1.794221E-1
5.890000E-1,1.968178E+0,-1.787646E-1
5.900000E-1,1.968835E+0,-1.797508E-1
5.910000E-1,1.969493E+0,-1.790934E-1
5.920000E-1,1.970150E+0,-1.787646E-1
5.930000E-1,1.969821E+0,-1.787646E-1
5.940000E-1,1.970808E+0,-1.767923E-1
5.950000E-1,1.971465E+0,-1.751486E-1
5.960000E-1,1.972123E+0,-1.725188E-1
5.970000E-1,1.972123E+0,-1.702176E-1
5.980000E-1,1.973109E+0,-1.682453E-1
5.990000E-1,1.973438E+0,-1.652867E-1
6.000000E-1,1.973438E+0,-1.626568E-1
6.010000E-1,1.974424E+0,-1.603557E-1
6.020000E-1,1.973766E+0,-1.593695E-1
6.030000E-1,1.975081E+0,-1.590408E-1
6.040000E-1,1.974752E+0,-1.583833E-1
6.050000E-1,1.974752E+0,-1.600270E-1
6.060000E-1,1.975410E+0,-1.587121E-1
6.070000E-1,1.975739E+0,-1.590408E-1
6.080000E-1,1.976725E+0,-1.596982E-1
6.090000E-1,1.977382E+0,-1.593695E-1
6.100000E-1,1.977054E+0,-1.590408E-1
6.110000E-1,1.977711E+0,-1.573971E-1
6.120000E-1,1.978369E+0,-1.557535E-1
6.130000E-1,1.978040E+0,-1.534524E-1
6.140000E-1,1.979355E+0,-1.511512E-1
6.150000E-1,1.979355E+0,-1.488501E-1
6.160000E-1,1.979683E+0,-1.458916E-1
6.170000E-1,1.980341E+0,-1.439192E-1
6.180000E-1,1.980998E+0,-1.426042E-1
6.190000E-1,1.980998E+0,-1.416180E-1
6.200000E-1,1.981985E+0,-1.419468E-1
6.210000E-1,1.981656E+0,-1.419468E-1
6.220000E-1,1.981985E+0,-1.419468E-1
6.230000E-1,1.982642E+0,-1.419468E-1
6.240000E-1,1.982313E+0,-1.422755E-1
6.250000E-1,1.982971E+0,-1.422755E-1
6.260000E-1,1.982971E+0,-1.422755E-1
6.270000E-1,1.983957E+0,-1.419468E-1
6.280000E-1,1.984286E+0,-1.403031E-1
6.290000E-1,1.984614E+0,-1.383307E-1
6.300000E-1,1.984286E+0,-1.357009E-1
6.310000E-1,1.984943E+0,-1.337285E-1
6.320000E-1,1.985272E+0,-1.317561E-1
6.330000E-1,1.985272E+0,-1.287975E-1
6.340000E-1,1.985601E+0,-1.278114E-1
6.350000E-1,1.986258E+0,-1.261677E-1
6.360000E-1,1.986587E+0,-1.258390E-1
6.370000E-1,1.986587E+0,-1.251815E-1
6.380000E-1,1.987573E+0,-1.258390E-1
6.390000E-1,1.987573E+0,-1.264964E-1
6.400000E-1,1.987573E+0,-1.264964E-1
6.410000E-1,1.988230E+0,-1.274826E-1
6.420000E-1,1.987573E+0,-1.271539E-1
6.430000E-1,1.988230E+0,-1.268252E-1
6.440000E-1,1.989217E+0,-1.258390E-1
6.450000E-1,1.989874E+0,-1.245240E-1
6.460000E-1,1.990203E+0,-1.222229E-1
6.470000E-1,1.990532E+0,-1.205793E-1
6.480000E-1,1.989874E+0,-1.176207E-1
6.490000E-1,1.990532E+0,-1.149908E-1
6.500000E-1,1.991189E+0,-1.133472E-1
6.510000E-1,1.990860E+0,-1.120323E-1
6.520000E-1,1.991846E+0,-1.100599E-1
6.530000E-1,1.991189E+0,-1.103886E-1
6.540000E-1,1.991846E+0,-1.100599E-1
6.550000E-1,1.991846E+0,-1.107173E-1
6.560000E-1,1.992833E+0,-1.113748E-1
6.570000E-1,1.992175E+0,-1.113748E-1
6.580000E-1,1.992833E+0,-1.117035E-1
6.590000E-1,1.993161E+0,-1.113748E-1
6.600000E-1,1.992833E+0,-1.097312E-1
6.610000E-1,1.993819E+0,-1.103886E-1
6.620000E-1,1.994148E+0,-1.080875E-1
6.630000E-1,1.994148E+0,-1.064438E-1
6.640000E-1,1.994805E+0,-1.034853E-1
6.650000E-1,1.994805E+0,-1.011841E-1
6.660000E-1,1.994805E+0,-9.855430E-2
6.670000E-1,1.995134E+0,-9.625319E-2
6.680000E-1,1.996449E+0,-9.559572E-2
6.690000E-1,1.995134E+0,-9.526699E-2
6.700000E-1,1.996120E+0,-9.493826E-2
6.710000E-1,1.995134E+0,-9.493826E-2
6.720000E-1,1.996120E+0,-9.592446E-2
6.730000E-1,1.995791E+0,-9.658192E-2
6.740000E-1,1.996120E+0,-9.658192E-2
6.750000E-1,1.996449E+0,-9.691065E-2
6.760000E-1,1.996777E+0,-9.625319E-2
6.770000E-1,1.997106E+0,-9.625319E-2
6.780000E-1,1.997764E+0,-9.428080E-2
6.790000E-1,1.997435E+0,-9.329461E-2
6.800000E-1,1.998092E+0,-9.066476E-2
6.810000E-1,1.997435E+0,-8.836364E-2
6.820000E-1,1.998092E+0,-8.606253E-2
6.830000E-1,1.998092E+0,-8.409014E-2
6.840000E-1,1.998750E+0,-8.211776E-2
6.850000E-1,1.999407E+0,-8.146030E-2
6.860000E-1,1.999407E+0,-8.146030E-2
6.870000E-1,1.999079E+0,-8.113156E-2
6.880000E-1,1.999736E+0,-8.113156E-2
6.890000E-1,1.999407E+0,-8.244649E-2
6.900000E-1,1.999736E+0,-8.244649E-2
6.910000E-1,1.999736E+0,-8.310395E-2
6.920000E-1,1.999736E+0,-8.343268E-2
6.930000E-1,2.000065E+0,-8.343268E-2
6.940000E-1,1.999736E+0,-8.376141E-2
6.950000E-1,2.000722E+0,-8.047410E-2
6.960000E-1,2.000722E+0,-7.915918E-2
6.970000E-1,2.000065E+0,-7.718679E-2
6.980000E-1,2.001051E+0,-7.488568E-2
6.990000E-1,2.001380E+0,-7.225583E-2
7.000000E-1,2.001051E+0,-7.028345E-2
7.010000E-1,2.002037E+0,-6.896852E-2
7.020000E-1,2.001708E+0,-6.699614E-2
7.030000E-1,2.002037E+0,-6.765360E-2
7.040000E-1,2.001708E+0,-6.798233E-2
7.050000E-1,2.002366E+0,-6.896852E-2
7.060000E-1,2.002037E+0,-7.028345E-2
7.070000E-1,2.001708E+0,-7.028345E-2
7.080000E-1,2.002695E+0,-7.094091E-2
7.090000E-1,2.002695E+0,-7.061218E-2
7.100000E-1,2.002366E+0,-7.061218E-2
7.110000E-1,2.002695E+0,-6.929725E-2
7.120000E-1,2.003023E+0,-6.863979E-2
7.130000E-1,2.003681E+0,-6.633867E-2
7.140000E-1,2.004010E+0,-6.436629E-2
7.150000E-1,2.003352E+0,-6.206517E-2
7.160000E-1,2.003352E+0,-5.976406E-2
7.170000E-1,2.003681E+0,-5.812040E-2
7.180000E-1,2.004338E+0,-5.680548E-2
7.190000E-1,2.003681E+0,-5.614802E-2
7.200000E-1,2.004010E+0,-5.647675E-2
7.210000E-1,2.004338E+0,-5.746294E-2
7.220000E-1,2.004667E+0,-5.812040E-2
7.230000E-1,2.003681E+0,-5.910659E-2
7.240000E-1,2.004338E+0,-5.943533E-2
7.250000E-1,2.004667E+0,-6.075025E-2
7.260000E-1,2.004996E+0,-6.075025E-2
7.270000E-1,2.005324E+0,-6.042152E-2
7.280000E-1,2.004996E+0,-5.844913E-2
7.290000E-1,2.004996E+0,-5.779167E-2
7.300000E-1,2.005324E+0,-5.549055E-2
7.310000E-1,2.005982E+0,-5.351817E-2
7.320000E-1,2.004996E+0,-5.220325E-2
7.330000E-1,2.005653E+0,-5.023086E-2
7.340000E-1,2.006311E+0,-4.924467E-2
7.350000E-1,2.006311E+0,-4.858721E-2
7.360000E-1,2.005982E+0,-4.792974E-2
7.370000E-1,2.005982E+0,-4.891594E-2
7.380000E-1,2.005982E+0,-4.924467E-2
7.390000E-1,2.005982E+0,-5.121705E-2
7.400000E-1,2.006311E+0,-5.253198E-2
7.410000E-1,2.006311E+0,-5.351817E-2
7.420000E-1,2.006968E+0,-5.417563E-2
7.430000E-1,2.006639E+0,-5.581929E-2
7.440000E-1,2.005653E+0,-5.581929E-2
7.450000E-1,2.006311E+0,-5.516182E-2
7.460000E-1,2.006968E+0,-5.351817E-2
7.470000E-1,2.007297E+0,-5.286071E-2
7.480000E-1,2.007297E+0,-5.055959E-2
7.490000E-1,2.007297E+0,-4.924467E-2
7.500000E-1,2.007297E+0,-4.792974E-2
7.510000E-1,2.007297E+0,-4.595736E-2
7.520000E-1,2.007297E+0,-4.562863E-2
7.530000E-1,2.007297E+0,-4.595736E-2
7.540000E-1,2.007954E+0,-4.529990E-2
7.550000E-1,2.007297E+0,-4.529990E-2
7.560000E-1,2.007626E+0,-4.595736E-2
7.570000E-1,2.007626E+0,-4.628609E-2
7.580000E-1,2.007954E+0,-4.562863E-2
7.590000E-1,2.008283E+0,-4.562863E-2
7.600000E-1,2.007626E+0,-4.529990E-2
7.610000E-1,2.008612E+0,-4.365624E-2
7.620000E-1,2.008283E+0,-4.201259E-2
7.630000E-1,2.008941E+0,-3.938274E-2
7.640000E-1,2.008612E+0,-3.675289E-2
7.650000E-1,2.008612E+0,-3.445178E-2
7.660000E-1,2.008612E+0,-3.346558E-2
7.670000E-1,2.009269E+0,-3.083574E-2
7.680000E-1,2.009269E+0,-2.886335E-2
7.690000E-1,2.009269E+0,-2.820589E-2
7.700000E-1,2.009269E+0,-2.787716E-2
7.710000E-1,2.009269E+0,-2.754843E-2
7.720000E-1,2.009269E+0,-2.787716E-2
7.730000E-1,2.009598E+0,-2.886335E-2
7.740000E-1,2.009269E+0,-2.886335E-2
7.750000E-1,2.009927E+0,-2.853462E-2
7.760000E-1,2.009598E+0,-2.853462E-2
7.770000E-1,2.009269E+0,-2.787716E-2
7.780000E-1,2.009927E+0,-2.689097E-2
7.790000E-1,2.009269E+0,-2.458985E-2
7.800000E-1,2.010255E+0,-2.163127E-2
7.810000E-1,2.009927E+0,-1.933016E-2
7.820000E-1,2.009598E+0,-1.735777E-2
7.830000E-1,2.010255E+0,-1.538538E-2
7.840000E-1,2.010584E+0,-1.374173E-2
7.850000E-1,2.010913E+0,-1.176934E-2
7.860000E-1,2.010913E+0,-1.209808E-2
7.870000E-1,2.009927E+0,-1.111188E-2
7.880000E-1,2.010913E+0,-1.045442E-2
7.890000E-1,2.010913E+0,-1.144061E-2
7.900000E-1,2.011242E+0,-1.176934E-2
7.910000E-1,2.010584E+0,-1.275554E-2
7.920000E-1,2.010913E+0,-1.374173E-2
7.930000E-1,2.010584E+0,-1.209808E-2
7.940000E-1,2.011570E+0,-1.111188E-2
7.950000E-1,2.010913E+0,-8.482035E-3
7.960000E-1,2.012228E+0,-7.167112E-3
7.970000E-1,2.011242E+0,-4.537264E-3
7.980000E-1,2.010913E+0,-2.236148E-3
7.990000E-1,2.010913E+0,3.936992E-4
8.000000E-1,2.011899E+0,2.694816E-3
8.010000E-1,2.011899E+0,3.681008E-3
8.020000E-1,2.011570E+0,4.995932E-3
8.030000E-1,2.011899E+0,5.324663E-3
8.040000E-1,2.011899E+0,5.653394E-3
8.050000E-1,2.011570E+0,5.324663E-3
8.060000E-1,2.011570E+0,4.667201E-3
8.070000E-1,2.011242E+0,4.009739E-3
8.080000E-1,2.011570E+0,3.681008E-3
8.090000E-1,2.011242E+0,3.352277E-3
8.100000E-1,2.011899E+0,4.338470E-3
8.110000E-1,2.011570E+0,5.982125E-3
8.120000E-1,2.012228E+0,6.639586E-3
8.130000E-1,2.011899E+0,8.940703E-3
8.140000E-1,2.012885E+0,1.091309E-2
8.150000E-1,2.011899E+0,1.321420E-2
8.160000E-1,2.011899E+0,1.584405E-2
8.170000E-1,2.013214E+0,1.650151E-2
8.180000E-1,2.012557E+0,1.814517E-2
8.190000E-1,2.012557E+0,1.913136E-2
8.200000E-1,2.013214E+0,1.880263E-2
8.210000E-1,2.012885E+0,1.913136E-2
8.220000E-1,2.012557E+0,1.847390E-2
8.230000E-1,2.013214E+0,1.781644E-2
8.240000E-1,2.013214E+0,1.847390E-2
8.250000E-1,2.013214E+0,1.715898E-2
8.260000E-1,2.012557E+0,1.748771E-2
8.270000E-1,2.012557E+0,1.880263E-2
8.280000E-1,2.013214E+0,2.011755E-2
8.290000E-1,2.012885E+0,2.208994E-2
8.300000E-1,2.013214E+0,2.406232E-2
8.310000E-1,2.012557E+0,2.669217E-2
8.320000E-1,2.013214E+0,2.932202E-2
8.330000E-1,2.013871E+0,3.195187E-2
8.340000E-1,2.013543E+0,3.359552E-2
8.350000E-1,2.013871E+0,3.491044E-2
8.360000E-1,2.013214E+0,3.556791E-2
8.370000E-1,2.014200E+0,3.655410E-2
8.380000E-1,2.013871E+0,3.556791E-2
8.390000E-1,2.013543E+0,3.491044E-2
8.400000E-1,2.013543E+0,3.491044E-2
8.410000E-1,2.013871E+0,3.523918E-2
8.420000E-1,2.013871E+0,3.556791E-2
8.430000E-1,2.013543E+0,3.589664E-2
8.440000E-1,2.013871E+0,3.655410E-2
8.450000E-1,2.013871E+0,3.885522E-2
8.460000E-1,2.014200E+0,3.984141E-2
8.470000E-1,2.013871E+0,4.279999E-2
8.480000E-1,2.013871E+0,4.477237E-2
8.490000E-1,2.014200E+0,4.674476E-2
8.500000E-1,2.015186E+0,4.970334E-2
8.510000E-1,2.014529E+0,5.167572E-2
8.520000E-1,2.014200E+0,5.167572E-2
8.530000E-1,2.013871E+0,5.233318E-2
8.540000E-1,2.014529E+0,5.233318E-2
8.550000E-1,2.014858E+0,5.200445E-2
8.560000E-1,2.014200E+0,5.134699E-2
8.570000E-1,2.014858E+0,5.068953E-2
8.580000E-1,2.014200E+0,5.068953E-2
8.590000E-1,2.014529E+0,5.036080E-2
8.600000E-1,2.015186E+0,5.068953E-2
8.610000E-1,2.015186E+0,5.200445E-2
8.620000E-1,2.014529E+0,5.364811E-2
8.630000E-1,2.014858E+0,5.562049E-2
8.640000E-1,2.015186E+0,5.693542E-2
8.650000E-1,2.014529E+0,5.923653E-2
8.660000E-1,2.015515E+0,6.120892E-2
8.670000E-1,2.016173E+0,6.351003E-2
8.680000E-1,2.015844E+0,6.548242E-2
8.690000E-1,2.015515E+0,6.515369E-2
8.700000E-1,2.014858E+0,6.548242E-2
8.710000E-1,2.015515E+0,6.515369E-2
8.720000E-1,2.015186E+0,6.449623E-2
8.730000E-1,2.015515E+0,6.449623E-2
8.740000E-1,2.015515E+0,6.416750E-2
8.750000E-1,2.015515E+0,6.383876E-2
8.760000E-1,2.015515E+0,6.416750E-2
8.770000E-1,2.015515E+0,6.515369E-2
8.780000E-1,2.014529E+0,6.745480E-2
8.790000E-1,2.015844E+0,6.942719E-2
8.800000E-1,2.015844E+0,7.238577E-2
8.810000E-1,2.015844E+0,7.468688E-2
8.820000E-1,2.015844E+0,7.797419E-2
8.830000E-1,2.015844E+0,8.027531E-2
8.840000E-1,2.016173E+0,8.323389E-2
8.850000E-1,2.016173E+0,8.422008E-2
8.860000E-1,2.015515E+0,8.520627E-2
8.870000E-1,2.016173E+0,8.684993E-2
8.880000E-1,2.015515E+0,8.684993E-2
8.890000E-1,2.015844E+0,8.750739E-2
8.900000E-1,2.016501E+0,8.783612E-2
8.910000E-1,2.016830E+0,8.816485E-2
8.920000E-1,2.015844E+0,8.816485E-2
8.930000E-1,2.015844E+0,8.980851E-2
8.940000E-1,2.015844E+0,9.079470E-2
8.950000E-1,2.016501E+0,9.342455E-2
8.960000E-1,2.015844E+0,9.638313E-2
8.970000E-1,2.016501E+0,9.868424E-2
8.980000E-1,2.016501E+0,1.016428E-1
8.990000E-1,2.016830E+0,1.032865E-1
9.000000E-1,2.016501E+0,1.052589E-1
9.010000E-1,2.016501E+0,1.072312E-1
9.020000E-1,2.016501E+0,1.088749E-1
9.030000E-1,2.016830E+0,1.085462E-1
9.040000E-1,2.014858E+0,1.085462E-1
9.050000E-1,2.016501E+0,1.078887E-1
9.060000E-1,2.016501E+0,1.072312E-1
9.070000E-1,2.016173E+0,1.065738E-1
9.080000E-1,2.016830E+0,1.065738E-1
9.090000E-1,2.016830E+0,1.055876E-1
9.100000E-1,2.017488E+0,1.062451E-1
9.110000E-1,2.017159E+0,1.065738E-1
9.120000E-1,2.017488E+0,1.072312E-1
9.130000E-1,2.016830E+0,1.088749E-1
9.140000E-1,2.016830E+0,1.101898E-1
9.150000E-1,2.016501E+0,1.121622E-1
9.160000E-1,2.017488E+0,1.138059E-1
9.170000E-1,2.017159E+0,1.144633E-1
9.180000E-1,2.016830E+0,1.151208E-1
9.190000E-1,2.017159E+0,1.151208E-1
9.200000E-1,2.017159E+0,1.138059E-1
9.210000E-1,2.017159E+0,1.134771E-1
9.220000E-1,2.017159E+0,1.115047E-1
9.230000E-1,2.017488E+0,1.098611E-1
9.240000E-1,2.017488E+0,1.088749E-1
9.250000E-1,2.016501E+0,1.085462E-1
9.260000E-1,2.017488E+0,1.075600E-1
9.270000E-1,2.017159E+0,1.078887E-1
9.280000E-1,2.017488E+0,1.095324E-1
9.290000E-1,2.017159E+0,1.111760E-1
9.300000E-1,2.017159E+0,1.128197E-1
9.310000E-1,2.017159E+0,1.141346E-1
9.320000E-1,2.017816E+0,1.161070E-1
9.330000E-1,2.018474E+0,1.180794E-1
9.340000E-1,2.017159E+0,1.187368E-1
9.350000E-1,2.017159E+0,1.203805E-1
9.360000E-1,2.017816E+0,1.197230E-1
9.370000E-1,2.017488E+0,1.193943E-1
9.380000E-1,2.016501E+0,1.187368E-1
9.390000E-1,2.017488E+0,1.167644E-1
9.400000E-1,2.017488E+0,1.157782E-1
9.410000E-1,2.017816E+0,1.144633E-1
9.420000E-1,2.017488E+0,1.134771E-1
9.430000E-1,2.017816E+0,1.134771E-1
9.440000E-1,2.017159E+0,1.138059E-1
9.450000E-1,2.017816E+0,1.151208E-1
9.460000E-1,2.018145E+0,1.151208E-1
9.470000E-1,2.018474E+0,1.170932E-1
9.480000E-1,2.017159E+0,1.197230E-1
9.490000E-1,2.017816E+0,1.210379E-1
9.500000E-1,2.018802E+0,1.220241E-1
9.510000E-1,2.017816E+0,1.233391E-1
9.520000E-1,2.017816E+0,1.243253E-1
9.530000E-1,2.018802E+0,1.226816E-1
9.540000E-1,2.017816E+0,1.230103E-1
9.550000E-1,2.017159E+0,1.216954E-1
9.560000E-1,2.018145E+0,1.200518E-1
9.570000E-1,2.017816E+0,1.193943E-1
9.580000E-1,2.017816E+0,1.180794E-1
9.590000E-1,2.017159E+0,1.174219E-1
9.600000E-1,2.017816E+0,1.174219E-1
9.610000E-1,2.017816E+0,1.184081E-1
9.620000E-1,2.017816E+0,1.197230E-1
9.630000E-1,2.017816E+0,1.210379E-1
9.640000E-1,2.018145E+0,1.233391E-1
9.650000E-1,2.018145E+0,1.243253E-1
9.660000E-1,2.018474E+0,1.262976E-1
9.670000E-1,2.018145E+0,1.276126E-1
9.680000E-1,2.017816E+0,1.282700E-1
9.690000E-1,2.018474E+0,1.292562E-1
9.700000E-1,2.018145E+0,1.285988E-1
9.710000E-1,2.018474E+0,1.276126E-1
9.720000E-1,2.018474E+0,1.266264E-1
9.730000E-1,2.018145E+0,1.262976E-1
9.740000E-1,2.017816E+0,1.253114E-1
9.750000E-1,2.017816E+0,1.246540E-1
9.760000E-1,2.017816E+0,1.243253E-1
9.770000E-1,2.018145E+0,1.249827E-1
9.780000E-1,2.018145E+0,1.259689E-1
9.790000E-1,2.018474E+0,1.269551E-1
9.800000E-1,2.018474E+0,1.285988E-1
9.810000E-1,2.018145E+0,1.312286E-1
9.820000E-1,2.018145E+0,1.325435E-1
9.830000E-1,2.018802E+0,1.345159E-1
9.840000E-1,2.018474E+0,1.355021E-1
9.850000E-1,2.018474E+0,1.364883E-1
9.860000E-1,2.018802E+0,1.364883E-1
9.870000E-1,2.018474E+0,1.371458E-1
9.880000E-1,2.018802E+0,1.355021E-1
9.890000E-1,2.018802E+0,1.345159E-1
9.900000E-1,2.019789E+0,1.335297E-1
9.910000E-1,2.018145E+0,1.335297E-1
9.920000E-1,2.018474E+0,1.332010E-1
9.930000E-1,2.018145E+0,1.325435E-1
9.940000E-1,2.018802E+0,1.335297E-1
9.950000E-1,2.019131E+0,1.351734E-1
9.960000E-1,2.018802E+0,1.364883E-1
9.970000E-1,2.019131E+0,1.378032E-1
9.980000E-1,2.018802E+0,1.404331E-1
9.990000E-1,2.019789E+0,1.420767E-1
1.000000E+0,2.018802E+0,1.440491E-1
1.001000E+0,2.019131E+0,1.450353E-1
1.002000E+0,2.019131E+0,1.456928E-1
1.003000E+0,2.018802E+0,1.450353E-1
1.004000E+0,2.018802E+0,1.450353E-1
1.005000E+0,2.018802E+0,1.440491E-1
1.006000E+0,2.018802E+0,1.437204E-1
1.007000E+0,2.018474E+0,1.417480E-1
1.008000E+0,2.018474E+0,1.420767E-1
1.009000E+0,2.018802E+0,1.414193E-1
1.010000E+0,2.018474E+0,1.410905E-1
1.011000E+0,2.018802E+0,1.427342E-1
1.012000E+0,2.018802E+0,1.433916E-1
1.013000E+0,2.019460E+0,1.447066E-1
1.014000E+0,2.019131E+0,1.473364E-1
1.015000E+0,2.019460E+0,1.489801E-1
1.016000E+0,2.019131E+0,1.509525E-1
1.017000E+0,2.019460E+0,1.519387E-1
1.018000E+0,2.019131E+0,1.529248E-1
1.019000E+0,2.019460E+0,1.535823E-1
1.020000E+0,2.019131E+0,1.532536E-1
1.021000E+0,2.019131E+0,1.522674E-1
1.022000E+0,2.019131E+0,1.516099E-1
1.023000E+0,2.019131E+0,1.506237E-1
1.024000E+0,2.019460E+0,1.483226E-1
1.025000E+0,2.018802E+0,1.489801E-1
1.026000E+0,2.019131E+0,1.486513E-1
1.027000E+0,2.018474E+0,1.486513E-1
1.028000E+0,2.019460E+0,1.502950E-1
1.029000E+0,2.019789E+0,1.512812E-1
1.030000E+0,2.019131E+0,1.532536E-1
1.031000E+0,2.018802E+0,1.548972E-1
1.032000E+0,2.019131E+0,1.571983E-1
1.033000E+0,2.019131E+0,1.588420E-1
1.034000E+0,2.019131E+0,1.594995E-1
1.035000E+0,2.019131E+0,1.601569E-1
1.036000E+0,2.019131E+0,1.601569E-1
1.037000E+0,2.019460E+0,1.594995E-1
1.038000E+0,2.019460E+0,1.594995E-1
1.039000E+0,2.019460E+0,1.585133E-1
1.040000E+0,2.019460E+0,1.585133E-1
1.041000E+0,2.019460E+0,1.562122E-1
1.042000E+0,2.019131E+0,1.558834E-1
1.043000E+0,2.019131E+0,1.555547E-1
1.044000E+0,2.019789E+0,1.562122E-1
1.045000E+0,2.019460E+0,1.575271E-1
1.046000E+0,2.019460E+0,1.588420E-1
1.047000E+0,2.019460E+0,1.604857E-1
1.048000E+0,2.019789E+0,1.631155E-1
1.049000E+0,2.019460E+0,1.644304E-1
1.050000E+0,2.021104E+0,1.647592E-1
1.051000E+0,2.019789E+0,1.670603E-1
1.052000E+0,2.019131E+0,1.673890E-1
1.053000E+0,2.019460E+0,1.667315E-1
1.054000E+0,2.019789E+0,1.654166E-1
1.055000E+0,2.019789E+0,1.654166E-1
1.056000E+0,2.020117E+0,1.641017E-1
1.057000E+0,2.019460E+0,1.634442E-1
1.058000E+0,2.019460E+0,1.624580E-1
1.059000E+0,2.019789E+0,1.618006E-1
1.060000E+0,2.019460E+0,1.618006E-1
1.061000E+0,2.019789E+0,1.631155E-1
1.062000E+0,2.019460E+0,1.641017E-1
1.063000E+0,2.019460E+0,1.654166E-1
1.064000E+0,2.020117E+0,1.677177E-1
1.065000E+0,2.019460E+0,1.690327E-1
1.066000E+0,2.020117E+0,1.713338E-1
1.067000E+0,2.020117E+0,1.723200E-1
1.068000E+0,2.019131E+0,1.733062E-1
1.069000E+0,2.019789E+0,1.733062E-1
1.070000E+0,2.019789E+0,1.723200E-1
1.071000E+0,2.019131E+0,1.716625E-1
1.072000E+0,2.019789E+0,1.710050E-1
1.073000E+0,2.019460E+0,1.690327E-1
1.074000E+0,2.019131E+0,1.680465E-1
1.075000E+0,2.020446E+0,1.677177E-1
1.076000E+0,2.019460E+0,1.670603E-1
1.077000E+0,2.019789E+0,1.680465E-1
1.078000E+0,2.020446E+0,1.683752E-1
1.079000E+0,2.019789E+0,1.693614E-1
1.080000E+0,2.020117E+0,1.713338E-1
1.081000E+0,2.020117E+0,1.736349E-1
1.082000E+0,2.020117E+0,1.746211E-1
1.083000E+0,2.019789E+0,1.752785E-1
1.084000E+0,2.020775E+0,1.782371E-1
1.085000E+0,2.021432E+0,1.785659E-1
1.086000E+0,2.020117E+0,1.775797E-1
1.087000E+0,2.020117E+0,1.769222E-1
1.088000E+0,2.019789E+0,1.769222E-1
1.089000E+0,2.020117E+0,1.759360E-1
1.090000E+0,2.019789E+0,1.742924E-1
1.091000E+0,2.020117E+0,1.739636E-1
1.092000E+0,2.019789E+0,1.729774E-1
1.093000E+0,2.020117E+0,1.733062E-1
1.094000E+0,2.020117E+0,1.729774E-1
1.095000E+0,2.020117E+0,1.742924E-1
1.096000E+0,2.020117E+0,1.762647E-1
1.097000E+0,2.020117E+0,1.775797E-1
1.098000E+0,2.019789E+0,1.788946E-1
1.099000E+0,2.020446E+0,1.811957E-1
1.100000E+0,2.020446E+0,1.825106E-1
1.101000E+0,2.021104E+0,1.831681E-1
1.102000E+0,2.020446E+0,1.841543E-1
1.103000E+0,2.019789E+0,1.831681E-1
1.104000E+0,2.020117E+0,1.821819E-1
1.105000E+0,2.020446E+0,1.818532E-1
1.106000E+0,2.019789E+0,1.805382E-1
1.107000E+0,2.020117E+0,1.795520E-1
1.108000E+0,2.020117E+0,1.785659E-1
1.109000E+0,2.020446E+0,1.779084E-1
1.110000E+0,2.019131E+0,1.779084E-1
1.111000E+0,2.019789E+0,1.798808E-1
1.112000E+0,2.019789E+0,1.805382E-1
1.113000E+0,2.019460E+0,1.821819E-1
1.114000E+0,2.020117E+0,1.841543E-1
1.115000E+0,2.020446E+0,1.854692E-1
1.116000E+0,2.019789E+0,1.871129E-1
1.117000E+0,2.020117E+0,1.887565E-1
1.118000E+0,2.020446E+0,1.894140E-1
1.119000E+0,2.020117E+0,1.904002E-1
1.120000E+0,2.020446E+0,1.890852E-1
1.121000E+0,2.020446E+0,1.884278E-1
1.122000E+0,2.020117E+0,1.877703E-1
1.123000E+0,2.020775E+0,1.867841E-1
1.124000E+0,2.021104E+0,1.851405E-1
1.125000E+0,2.020117E+0,1.848117E-1
1.126000E+0,2.020117E+0,1.848117E-1
1.127000E+0,2.020775E+0,1.848117E-1
1.128000E+0,2.020446E+0,1.861267E-1
1.129000E+0,2.021104E+0,1.867841E-1
1.130000E+0,2.020775E+0,1.890852E-1
1.131000E+0,2.020775E+0,1.917151E-1
1.132000E+0,2.020446E+0,1.927013E-1
1.133000E+0,2.020446E+0,1.953311E-1
1.134000E+0,2.020775E+0,1.956599E-1
1.135000E+0,2.020446E+0,1.950024E-1
1.136000E+0,2.020446E+0,1.966461E-1
1.137000E+0,2.020446E+0,1.956599E-1
1.138000E+0,2.020117E+0,1.943449E-1
1.139000E+0,2.020446E+0,1.943449E-1
1.140000E+0,2.020775E+0,1.927013E-1
1.141000E+0,2.020117E+0,1.913864E-1
1.142000E+0,2.020446E+0,1.917151E-1
1.143000E+0,2.020446E+0,1.913864E-1
1.144000E+0,2.020775E+0,1.920438E-1
1.145000E+0,2.021432E+0,1.936875E-1
1.146000E+0,2.020446E+0,1.953311E-1
1.147000E+0,2.020446E+0,1.963173E-1
1.148000E+0,2.019789E+0,1.979610E-1
1.149000E+0,2.020775E+0,2.005908E-1
1.150000E+0,2.020446E+0,2.019058E-1
1.151000E+0,2.020775E+0,2.022345E-1
1.152000E+0,2.020446E+0,2.035494E-1
1.153000E+0,2.020775E+0,2.028919E-1
1.154000E+0,2.021104E+0,2.025632E-1
1.155000E+0,2.019789E+0,2.015770E-1
1.156000E+0,2.020117E+0,2.005908E-1
1.157000E+0,2.020117E+0,1.992759E-1
1.158000E+0,2.020117E+0,1.989472E-1
1.159000E+0,2.020446E+0,1.986184E-1
1.160000E+0,2.019789E+0,1.989472E-1
1.161000E+0,2.020446E+0,1.996046E-1
1.162000E+0,2.020117E+0,2.009196E-1
1.163000E+0,2.020117E+0,2.025632E-1
1.164000E+0,2.019789E+0,2.045356E-1
1.165000E+0,2.020117E+0,2.065080E-1
1.166000E+0,2.020446E+0,2.068367E-1
1.167000E+0,2.020775E+0,2.094666E-1
1.168000E+0,2.020446E+0,2.097953E-1
1.169000E+0,2.020446E+0,2.104528E-1
1.170000E+0,2.019789E+0,2.101240E-1
1.171000E+0,2.020446E+0,2.088091E-1
1.172000E+0,2.020117E+0,2.078229E-1
1.173000E+0,2.020775E+0,2.071654E-1
1.174000E+0,2.020117E+0,2.058505E-1
1.175000E+0,2.020446E+0,2.055218E-1
1.176000E+0,2.019789E+0,2.058505E-1
1.177000E+0,2.019460E+0,2.055218E-1
1.178000E+0,2.020117E+0,2.065080E-1
1.179000E+0,2.020446E+0,2.078229E-1
1.180000E+0,2.021432E+0,2.094666E-1
1.181000E+0,2.020117E+0,2.117677E-1
1.182000E+0,2.019789E+0,2.143975E-1
1.183000E+0,2.020775E+0,2.153837E-1
1.184000E+0,2.021104E+0,2.160412E-1
1.185000E+0,2.020446E+0,2.163699E-1
1.186000E+0,2.020446E+0,2.163699E-1
1.187000E+0,2.021104E+0,2.166986E-1
1.188000E+0,2.019789E+0,2.150550E-1
1.189000E+0,2.019789E+0,2.143975E-1
1.190000E+0,2.020446E+0,2.134113E-1
1.191000E+0,2.020117E+0,2.120964E-1
1.192000E+0,2.020446E+0,2.120964E-1
1.193000E+0,2.020446E+0,2.114389E-1
1.194000E+0,2.020117E+0,2.114389E-1
1.195000E+0,2.020446E+0,2.124251E-1
1.196000E+0,2.019789E+0,2.140688E-1
1.197000E+0,2.021104E+0,2.160412E-1
1.198000E+0,2.020117E+0,2.176848E-1
1.199000E+0,2.020446E+0,2.193285E-1
1.200000E+0,2.020775E+0,2.203147E-1
1.201000E+0,2.021104E+0,2.216296E-1
1.202000E+0,2.020117E+0,2.219583E-1
1.203000E+0,2.020446E+0,2.222871E-1
1.204000E+0,2.020117E+0,2.209721E-1
1.205000E+0,2.020775E+0,2.199860E-1
1.206000E+0,2.020775E+0,2.186710E-1
1.207000E+0,2.019789E+0,2.170274E-1
1.208000E+0,2.020446E+0,2.150550E-1
1.209000E+0,2.019460E+0,2.153837E-1
1.210000E+0,2.019789E+0,2.150550E-1
1.211000E+0,2.019789E+0,2.163699E-1
1.212000E+0,2.019789E+0,2.170274E-1
1.213000E+0,2.020446E+0,2.180136E-1
1.214000E+0,2.020775E+0,2.196572E-1
1.215000E+0,2.020446E+0,2.203147E-1
1.216000E+0,2.020775E+0,2.216296E-1
1.217000E+0,2.019131E+0,2.219583E-1
1.218000E+0,2.020446E+0,2.219583E-1
1.219000E+0,2.020446E+0,2.213009E-1
1.220000E+0,2.019789E+0,2.199860E-1
1.221000E+0,2.020775E+0,2.193285E-1
1.222000E+0,2.020117E+0,2.189998E-1
1.223000E+0,2.019789E+0,2.183423E-1
1.224000E+0,2.020117E+0,2.193285E-1
1.225000E+0,2.019789E+0,2.209721E-1
1.226000E+0,2.019789E+0,2.242595E-1
1.227000E+0,2.019789E+0,2.288617E-1
1.228000E+0,2.020117E+0,2.364225E-1
1.229000E+0,2.020117E+0,2.439833E-1
1.230000E+0,2.020446E+0,2.528590E-1
1.231000E+0,2.019460E+0,2.633784E-1
1.232000E+0,2.020775E+0,2.738978E-1
1.233000E+0,2.020775E+0,2.847459E-1
1.234000E+0,2.020775E+0,2.962515E-1
1.235000E+0,2.020446E+0,3.064422E-1
1.236000E+0,2.019789E+0,3.153179E-1
1.237000E+0,2.020117E+0,3.222213E-1
1.238000E+0,2.019789E+0,3.258373E-1
1.239000E+0,2.020446E+0,3.225500E-1
1.240000E+0,2.019460E+0,3.097295E-1
1.241000E+0,2.019460E+0,2.847459E-1
1.242000E+0,2.019460E+0,2.423397E-1
1.243000E+0,2.020446E+0,1.788946E-1
1.244000E+0,2.019131E+0,9.145216E-2
1.245000E+0,2.020117E+0,-2.228873E-2
1.246000E+0,2.019460E+0,-1.636430E-1
1.247000E+0,2.019789E+0,-3.319532E-1
1.248000E+0,2.019789E+0,-5.229459E-1
1.249000E+0,2.019789E+0,-7.336624E-1
1.250000E+0,2.019789E+0,-9.591717E-1
1.251000E+0,2.020117E+0,-1.191913E+0
1.252000E+0,2.020117E+0,-1.423997E+0
1.253000E+0,2.020117E+0,-1.645562E+0
1.254000E+0,2.019131E+0,-1.844115E+0
1.255000E+0,2.019789E+0,-2.009467E+0
1.256000E+0,2.019460E+0,-2.127481E+0
1.257000E+0,2.019789E+0,-2.187968E+0
1.258000E+0,2.019789E+0,-2.186653E+0
1.259000E+0,2.020446E+0,-2.116305E+0
1.260000E+0,2.020446E+0,-1.979552E+0
1.261000E+0,2.020117E+0,-1.780341E+0
1.262000E+0,2.020117E+0,-1.525575E+0
1.263000E+0,2.021104E+0,-1.226759E+0
1.264000E+0,2.020446E+0,-8.990140E-1
1.265000E+0,2.020117E+0,-5.554902E-1
1.266000E+0,2.020446E+0,-2.132814E-1
1.267000E+0,2.020117E+0,1.128197E-1
1.268000E+0,2.020775E+0,4.067051E-1
1.269000E+0,2.020117E+0,6.562119E-1
1.270000E+0,2.020117E+0,8.544367E-1
1.271000E+0,2.020446E+0,9.977635E-1
1.272000E+0,2.020117E+0,1.087507E+0
1.273000E+0,2.021432E+0,1.126626E+0
1.274000E+0,2.020117E+0,1.122353E+0
1.275000E+0,2.020446E+0,1.081919E+0
1.276000E+0,2.020117E+0,1.016830E+0
1.277000E+0,2.020117E+0,9.339896E-1
1.278000E+0,2.020117E+0,8.429311E-1
1.279000E+0,2.020446E+0,7.495715E-1
1.280000E+0,2.020117E+0,6.631153E-1
1.281000E+0,2.020117E+0,5.858635E-1
1.282000E+0,2.020446E+0,5.194598E-1
1.283000E+0,2.019789E+0,4.668629E-1
1.284000E+0,2.021104E+0,4.280726E-1
1.285000E+0,2.020117E+0,4.021029E-1
1.286000E+0,2.020446E+0,3.853376E-1
1.287000E+0,2.020446E+0,3.790917E-1
1.288000E+0,2.020117E+0,3.781055E-1
1.289000E+0,2.020117E+0,3.827078E-1
1.290000E+0,2.019789E+0,3.892824E-1
1.291000E+0,2.020446E+0,3.968432E-1
1.292000E+0,2.019789E+0,4.044040E-1
1.293000E+0,2.020117E+0,4.099924E-1
1.294000E+0,2.020117E+0,4.139372E-1
1.295000E+0,2.020117E+0,4.172245E-1
1.296000E+0,2.020446E+0,4.172245E-1
1.297000E+0,2.020446E+0,4.168958E-1
1.298000E+0,2.020117E+0,4.152521E-1
1.299000E+0,2.019789E+0,4.122936E-1
1.300000E+0,2.020117E+0,4.090062E-1
1.301000E+0,2.020446E+0,4.057189E-1
1.302000E+0,2.020446E+0,4.021029E-1
1.303000E+0,2.020446E+0,3.984869E-1
1.304000E+0,2.020446E+0,3.948708E-1
1.305000E+0,2.020117E+0,3.919122E-1
1.306000E+0,2.020117E+0,3.909260E-1
1.307000E+0,2.020446E+0,3.886249E-1
1.308000E+0,2.020117E+0,3.889537E-1
1.309000E+0,2.019789E+0,3.896111E-1
1.310000E+0,2.020117E+0,3.905973E-1
1.311000E+0,2.020446E+0,3.909260E-1
1.312000E+0,2.019789E+0,3.932272E-1
1.313000E+0,2.019789E+0,3.951995E-1
1.314000E+0,2.020117E+0,3.968432E-1
1.315000E+0,2.020117E+0,3.981581E-1
1.316000E+0,2.020446E+0,3.991443E-1
1.317000E+0,2.020446E+0,4.001305E-1
1.318000E+0,2.020775E+0,4.004592E-1
1.319000E+0,2.019460E+0,3.991443E-1
1.320000E+0,2.020117E+0,3.981581E-1
1.321000E+0,2.019789E+0,3.965145E-1
1.322000E+0,2.019789E+0,3.942133E-1
1.323000E+0,2.020117E+0,3.928984E-1
1.324000E+0,2.020117E+0,3.899398E-1
1.325000E+0,2.020446E+0,3.892824E-1
1.326000E+0,2.019789E+0,3.873100E-1
1.327000E+0,2.020446E+0,3.876387E-1
1.328000E+0,2.020775E+0,3.879675E-1
1.329000E+0,2.020117E+0,3.889537E-1
1.330000E+0,2.020446E+0,3.899398E-1
1.331000E+0,2.019789E+0,3.905973E-1
1.332000E+0,2.020117E+0,3.912548E-1
1.333000E+0,2.020446E+0,3.925697E-1
1.334000E+0,2.020446E+0,3.938846E-1
1.335000E+0,2.020446E+0,3.928984E-1
1.336000E+0,2.019460E+0,3.925697E-1
1.337000E+0,2.019789E+0,3.905973E-1
1.338000E+0,2.019789E+0,3.896111E-1
1.339000E+0,2.019460E+0,3.879675E-1
1.340000E+0,2.020117E+0,3.856663E-1
1.341000E+0,2.019460E+0,3.843514E-1
1.342000E+0,2.019460E+0,3.833652E-1
1.343000E+0,2.020117E+0,3.813928E-1
1.344000E+0,2.019131E+0,3.820503E-1
1.345000E+0,2.019789E+0,3.820503E-1
1.346000E+0,2.019789E+0,3.823790E-1
1.347000E+0,2.020117E+0,3.840227E-1
1.348000E+0,2.019789E+0,3.846802E-1
1.349000E+0,2.020117E+0,3.859951E-1
1.350000E+0,2.019789E+0,3.866525E-1
1.351000E+0,2.020117E+0,3.873100E-1
1.352000E+0,2.019789E+0,3.859951E-1
1.353000E+0,2.019789E+0,3.846802E-1
1.354000E+0,2.019789E+0,3.836940E-1
1.355000E+0,2.019460E+0,3.820503E-1
1.356000E+0,2.019789E+0,3.797492E-1
1.357000E+0,2.019789E+0,3.781055E-1
1.358000E+0,2.020117E+0,3.771193E-1
1.359000E+0,2.019789E+0,3.744895E-1
1.360000E+0,2.019789E+0,3.741608E-1
1.361000E+0,2.019789E+0,3.754757E-1
1.362000E+0,2.019789E+0,3.754757E-1
1.363000E+0,2.020446E+0,3.764619E-1
1.364000E+0,2.020117E+0,3.774481E-1
1.365000E+0,2.019789E+0,3.781055E-1
1.366000E+0,2.020117E+0,3.794205E-1
1.367000E+0,2.020775E+0,3.800779E-1
1.368000E+0,2.020117E+0,3.804067E-1
1.369000E+0,2.019789E+0,3.797492E-1
1.370000E+0,2.019460E+0,3.781055E-1
1.371000E+0,2.019460E+0,3.767906E-1
1.372000E+0,2.019789E+0,3.748182E-1
1.373000E+0,2.020117E+0,3.735033E-1
1.374000E+0,2.019460E+0,3.718596E-1
1.375000E+0,2.020117E+0,3.702160E-1
1.376000E+0,2.019789E+0,3.708735E-1
1.377000E+0,2.019789E+0,3.692298E-1
1.378000E+0,2.019460E+0,3.698873E-1
1.379000E+0,2.019789E+0,3.705447E-1
1.380000E+0,2.019789E+0,3.721884E-1
1.381000E+0,2.019789E+0,3.728458E-1
1.382000E+0,2.020117E+0,3.731746E-1
1.383000E+0,2.020446E+0,3.748182E-1
1.384000E+0,2.020775E+0,3.754757E-1
1.385000E+0,2.020117E+0,3.754757E-1
1.386000E+0,2.019789E+0,3.748182E-1
1.387000E+0,2.019460E+0,3.721884E-1
1.388000E+0,2.019789E+0,3.715309E-1
1.389000E+0,2.019460E+0,3.698873E-1
1.390000E+0,2.019460E+0,3.682436E-1
1.391000E+0,2.019789E+0,3.659425E-1
1.392000E+0,2.019131E+0,3.652850E-1
1.393000E+0,2.018802E+0,3.649563E-1
1.394000E+0,2.019789E+0,3.652850E-1
1.395000E+0,2.019131E+0,3.656138E-1
1.396000E+0,2.018802E+0,3.666000E-1
1.397000E+0,2.019789E+0,3.675861E-1
1.398000E+0,2.019131E+0,3.689011E-1
1.399000E+0,2.019789E+0,3.702160E-1
1.400000E+0,2.019789E+0,3.715309E-1
1.401000E+0,2.019789E+0,3.721884E-1
1.402000E+0,2.019789E+0,3.718596E-1
1.403000E+0,2.019131E+0,3.705447E-1
1.404000E+0,2.019460E+0,3.698873E-1
1.405000E+0,2.019131E+0,3.689011E-1
1.406000E+0,2.019460E+0,3.672574E-1
1.407000E+0,2.019460E+0,3.652850E-1
1.408000E+0,2.019789E+0,3.636414E-1
1.409000E+0,2.018802E+0,3.633126E-1
1.410000E+0,2.019460E+0,3.629839E-1
1.411000E+0,2.019460E+0,3.639701E-1
1.412000E+0,2.019131E+0,3.642988E-1
1.413000E+0,2.019131E+0,3.649563E-1
1.414000E+0,2.019131E+0,3.669287E-1
1.415000E+0,2.019131E+0,3.679149E-1
1.416000E+0,2.019131E+0,3.698873E-1
1.417000E+0,2.019131E+0,3.708735E-1
1.418000E+0,2.018802E+0,3.708735E-1
1.419000E+0,2.018474E+0,3.705447E-1
1.420000E+0,2.020117E+0,3.689011E-1
1.421000E+0,2.019131E+0,3.685723E-1
1.422000E+0,2.019131E+0,3.666000E-1
1.423000E+0,2.018802E+0,3.656138E-1
1.424000E+0,2.019460E+0,3.642988E-1
1.425000E+0,2.019460E+0,3.629839E-1
1.426000E+0,2.018474E+0,3.623264E-1
1.427000E+0,2.018474E+0,3.619977E-1
1.428000E+0,2.018802E+0,3.619977E-1
1.429000E+0,2.018802E+0,3.629839E-1
1.430000E+0,2.019131E+0,3.649563E-1
1.431000E+0,2.018474E+0,3.656138E-1
1.432000E+0,2.019131E+0,3.672574E-1
1.433000E+0,2.019131E+0,3.682436E-1
1.434000E+0,2.019131E+0,3.698873E-1
1.435000E+0,2.018474E+0,3.695585E-1
1.436000E+0,2.018474E+0,3.695585E-1
1.437000E+0,2.018802E+0,3.679149E-1
1.438000E+0,2.018145E+0,3.666000E-1
1.439000E+0,2.018145E+0,3.649563E-1
1.440000E+0,2.018145E+0,3.639701E-1
1.441000E+0,2.018145E+0,3.629839E-1
1.442000E+0,2.017816E+0,3.623264E-1
1.443000E+0,2.018474E+0,3.619977E-1
1.444000E+0,2.018802E+0,3.623264E-1
1.445000E+0,2.018145E+0,3.633126E-1
1.446000E+0,2.018145E+0,3.642988E-1
1.447000E+0,2.018145E+0,3.662712E-1
1.448000E+0,2.017488E+0,3.672574E-1
1.449000E+0,2.017816E+0,3.689011E-1
1.450000E+0,2.017816E+0,3.698873E-1
1.451000E+0,2.018145E+0,3.708735E-1
1.452000E+0,2.018145E+0,3.705447E-1
1.453000E+0,2.017488E+0,3.698873E-1
1.454000E+0,2.017488E+0,3.695585E-1
1.455000E+0,2.018802E+0,3.675861E-1
1.456000E+0,2.017488E+0,3.666000E-1
1.457000E+0,2.017159E+0,3.656138E-1
1.458000E+0,2.017159E+0,3.636414E-1
1.459000E+0,2.017159E+0,3.633126E-1
1.460000E+0,2.017159E+0,3.629839E-1
1.461000E+0,2.017159E+0,3.633126E-1
1.462000E+0,2.016830E+0,3.642988E-1
1.463000E+0,2.016830E+0,3.659425E-1
1.464000E+0,2.016830E+0,3.682436E-1
1.465000E+0,2.016501E+0,3.689011E-1
1.466000E+0,2.016830E+0,3.698873E-1
1.467000E+0,2.017159E+0,3.708735E-1
1.468000E+0,2.016830E+0,3.718596E-1
1.469000E+0,2.016173E+0,3.718596E-1
1.470000E+0,2.016501E+0,3.708735E-1
1.471000E+0,2.015186E+0,3.695585E-1
1.472000E+0,2.015844E+0,3.675861E-1
1.473000E+0,2.015515E+0,3.669287E-1
1.474000E+0,2.015515E+0,3.652850E-1
1.475000E+0,2.015515E+0,3.642988E-1
1.476000E+0,2.015186E+0,3.636414E-1
1.477000E+0,2.014858E+0,3.636414E-1
1.478000E+0,2.015186E+0,3.646276E-1
1.479000E+0,2.015186E+0,3.656138E-1
1.480000E+0,2.015515E+0,3.672574E-1
1.481000E+0,2.014858E+0,3.685723E-1
1.482000E+0,2.014858E+0,3.705447E-1
1.483000E+0,2.014858E+0,3.718596E-1
1.484000E+0,2.014858E+0,3.725171E-1
1.485000E+0,2.014858E+0,3.728458E-1
1.486000E+0,2.014200E+0,3.721884E-1
1.487000E+0,2.014200E+0,3.715309E-1
1.488000E+0,2.013871E+0,3.689011E-1
1.489000E+0,2.013214E+0,3.692298E-1
1.490000E+0,2.012885E+0,3.672574E-1
1.491000E+0,2.013214E+0,3.659425E-1
1.492000E+0,2.012557E+0,3.652850E-1
1.493000E+0,2.011570E+0,3.656138E-1
1.494000E+0,2.012557E+0,3.659425E-1
1.495000E+0,2.012228E+0,3.666000E-1
1.496000E+0,2.012228E+0,3.679149E-1
1.497000E+0,2.011242E+0,3.689011E-1
1.498000E+0,2.011570E+0,3.708735E-1
1.499000E+0,2.011899E+0,3.725171E-1
1.500000E+0,2.010584E+0,3.741608E-1
1.501000E+0,2.011570E+0,3.748182E-1
1.502000E+0,2.011570E+0,3.748182E-1
1.503000E+0,2.010255E+0,3.741608E-1
1.504000E+0,2.010913E+0,3.735033E-1
1.505000E+0,2.009927E+0,3.721884E-1
1.506000E+0,2.009927E+0,3.715309E-1
1.507000E+0,2.010584E+0,3.689011E-1
1.508000E+0,2.009269E+0,3.682436E-1
1.509000E+0,2.009269E+0,3.675861E-1
1.510000E+0,2.008612E+0,3.685723E-1
1.511000E+0,2.009269E+0,3.689011E-1
1.512000E+0,2.008941E+0,3.695585E-1
1.513000E+0,2.008283E+0,3.702160E-1
1.514000E+0,2.007954E+0,3.721884E-1
1.515000E+0,2.007626E+0,3.741608E-1
1.516000E+0,2.007954E+0,3.748182E-1
1.517000E+0,2.006639E+0,3.764619E-1
1.518000E+0,2.006639E+0,3.771193E-1
1.519000E+0,2.006639E+0,3.767906E-1
1.520000E+0,2.005324E+0,3.761331E-1
1.521000E+0,2.005653E+0,3.751470E-1
1.522000E+0,2.005982E+0,3.741608E-1
1.523000E+0,2.005324E+0,3.731746E-1
1.524000E+0,2.004667E+0,3.712022E-1
1.525000E+0,2.004996E+0,3.695585E-1
1.526000E+0,2.003681E+0,3.695585E-1
1.527000E+0,2.003681E+0,3.695585E-1
1.528000E+0,2.003023E+0,3.708735E-1
1.529000E+0,2.003352E+0,3.715309E-1
1.530000E+0,2.002037E+0,3.728458E-1
1.531000E+0,2.002695E+0,3.748182E-1
1.532000E+0,2.002366E+0,3.758044E-1
1.533000E+0,2.002366E+0,3.774481E-1
1.534000E+0,2.001380E+0,3.787630E-1
1.535000E+0,2.001051E+0,3.784343E-1
1.536000E+0,2.000394E+0,3.781055E-1
1.537000E+0,2.000065E+0,3.777768E-1
1.538000E+0,2.000065E+0,3.754757E-1
1.539000E+0,1.999736E+0,3.751470E-1
1.540000E+0,1.998750E+0,3.738320E-1
1.541000E+0,1.998750E+0,3.728458E-1
1.542000E+0,1.997435E+0,3.715309E-1
1.543000E+0,1.997435E+0,3.705447E-1
1.544000E+0,1.997435E+0,3.712022E-1
1.545000E+0,1.996777E+0,3.725171E-1
1.546000E+0,1.995791E+0,3.735033E-1
1.547000E+0,1.995791E+0,3.748182E-1
1.548000E+0,1.995463E+0,3.764619E-1
1.549000E+0,1.994476E+0,3.781055E-1
1.550000E+0,1.994148E+0,3.787630E-1
1.551000E+0,1.993819E+0,3.804067E-1
1.552000E+0,1.993490E+0,3.800779E-1
1.553000E+0,1.992833E+0,3.797492E-1
1.554000E+0,1.992833E+0,3.784343E-1
1.555000E+0,1.992504E+0,3.777768E-1
1.556000E+0,1.991518E+0,3.758044E-1
1.557000E+0,1.990860E+0,3.738320E-1
1.558000E+0,1.990203E+0,3.728458E-1
1.559000E+0,1.990203E+0,3.721884E-1
1.560000E+0,1.989217E+0,3.728458E-1
1.561000E+0,1.989217E+0,3.731746E-1
1.562000E+0,1.988559E+0,3.738320E-1
1.563000E+0,1.987573E+0,3.758044E-1
1.564000E+0,1.986916E+0,3.771193E-1
1.565000E+0,1.987244E+0,3.781055E-1
1.566000E+0,1.986587E+0,3.797492E-1
1.567000E+0,1.985601E+0,3.807354E-1
1.568000E+0,1.985601E+0,3.813928E-1
1.569000E+0,1.984614E+0,3.807354E-1
1.570000E+0,1.983957E+0,3.794205E-1
1.571000E+0,1.982971E+0,3.790917E-1
1.572000E+0,1.983299E+0,3.777768E-1
1.573000E+0,1.982642E+0,3.758044E-1
1.574000E+0,1.981985E+0,3.761331E-1
1.575000E+0,1.980670E+0,3.738320E-1
1.576000E+0,1.979683E+0,3.731746E-1
1.577000E+0,1.979026E+0,3.728458E-1
1.578000E+0,1.979026E+0,3.744895E-1
1.579000E+0,1.978697E+0,3.754757E-1
1.580000E+0,1.978040E+0,3.767906E-1
1.581000E+0,1.977382E+0,3.781055E-1
1.582000E+0,1.976396E+0,3.797492E-1
1.583000E+0,1.976396E+0,3.817216E-1
1.584000E+0,1.975410E+0,3.823790E-1
1.585000E+0,1.975081E+0,3.817216E-1
1.586000E+0,1.973766E+0,3.817216E-1
1.587000E+0,1.973766E+0,3.807354E-1
1.588000E+0,1.972780E+0,3.804067E-1
1.589000E+0,1.972451E+0,3.774481E-1
1.590000E+0,1.971794E+0,3.764619E-1
1.591000E+0,1.970479E+0,3.751470E-1
1.592000E+0,1.969821E+0,3.738320E-1
1.593000E+0,1.969493E+0,3.731746E-1
1.594000E+0,1.968178E+0,3.744895E-1
1.595000E+0,1.968178E+0,3.754757E-1
1.596000E+0,1.967520E+0,3.761331E-1
1.597000E+0,1.965548E+0,3.781055E-1
1.598000E+0,1.966205E+0,3.790917E-1
1.599000E+0,1.965219E+0,3.800779E-1
1.600000E+0,1.964233E+0,3.817216E-1
1.601000E+0,1.963904E+0,3.823790E-1
1.602000E+0,1.963247E+0,3.820503E-1
1.603000E+0,1.962589E+0,3.813928E-1
1.604000E+0,1.960617E+0,3.804067E-1
1.605000E+0,1.960288E+0,3.794205E-1
1.606000E+0,1.959960E+0,3.774481E-1
1.607000E+0,1.959631E+0,3.767906E-1
1.608000E+0,1.958645E+0,3.754757E-1
1.609000E+0,1.956015E+0,3.741608E-1
1.610000E+0,1.957001E+0,3.754757E-1
1.611000E+0,1.957001E+0,3.767906E-1
1.612000E+0,1.954700E+0,3.767906E-1
1.613000E+0,1.954371E+0,3.784343E-1
1.614000E+0,1.953714E+0,3.797492E-1
1.615000E+0,1.953385E+0,3.820503E-1
1.616000E+0,1.952070E+0,3.836940E-1
1.617000E+0,1.952070E+0,3.846802E-1
1.618000E+0,1.951084E+0,3.853376E-1
1.619000E+0,1.950426E+0,3.850089E-1
1.620000E+0,1.949440E+0,3.846802E-1
1.621000E+0,1.948454E+0,3.833652E-1
1.622000E+0,1.948454E+0,3.823790E-1
1.623000E+0,1.946482E+0,3.807354E-1
1.624000E+0,1.945824E+0,3.800779E-1
1.625000E+0,1.945824E+0,3.787630E-1
1.626000E+0,1.944509E+0,3.781055E-1
1.627000E+0,1.943852E+0,3.790917E-1
1.628000E+0,1.942866E+0,3.797492E-1
1.629000E+0,1.942208E+0,3.810641E-1
1.630000E+0,1.941551E+0,3.823790E-1
1.631000E+0,1.940564E+0,3.840227E-1
1.632000E+0,1.939578E+0,3.850089E-1
1.633000E+0,1.938921E+0,3.859951E-1
1.634000E+0,1.937935E+0,3.869813E-1
1.635000E+0,1.937277E+0,3.876387E-1
1.636000E+0,1.936291E+0,3.866525E-1
1.637000E+0,1.935633E+0,3.846802E-1
1.638000E+0,1.934319E+0,3.836940E-1
1.639000E+0,1.934319E+0,3.820503E-1
1.640000E+0,1.933661E+0,3.800779E-1
1.641000E+0,1.932346E+0,3.787630E-1
1.642000E+0,1.931689E+0,3.771193E-1
1.643000E+0,1.930374E+0,3.764619E-1
1.644000E+0,1.930045E+0,3.767906E-1
1.645000E+0,1.929059E+0,3.774481E-1
1.646000E+0,1.928401E+0,3.790917E-1
1.647000E+0,1.927415E+0,3.804067E-1
1.648000E+0,1.926758E+0,3.817216E-1
1.649000E+0,1.925443E+0,3.813928E-1
1.650000E+0,1.925114E+0,3.840227E-1
1.651000E+0,1.923799E+0,3.850089E-1
1.652000E+0,1.923470E+0,3.853376E-1
1.653000E+0,1.922484E+0,3.836940E-1
1.654000E+0,1.921498E+0,3.827078E-1
1.655000E+0,1.920512E+0,3.810641E-1
1.656000E+0,1.919526E+0,3.787630E-1
1.657000E+0,1.919526E+0,3.781055E-1
1.658000E+0,1.918868E+0,3.764619E-1
1.659000E+0,1.917224E+0,3.761331E-1
1.660000E+0,1.915910E+0,3.758044E-1
1.661000E+0,1.916896E+0,3.764619E-1
1.662000E+0,1.915252E+0,3.771193E-1
1.663000E+0,1.913937E+0,3.787630E-1
1.664000E+0,1.913280E+0,3.800779E-1
1.665000E+0,1.912622E+0,3.817216E-1
1.666000E+0,1.912622E+0,3.833652E-1
1.667000E+0,1.910650E+0,3.843514E-1
1.668000E+0,1.909664E+0,3.853376E-1
1.669000E+0,1.909335E+0,3.850089E-1
1.670000E+0,1.908349E+0,3.846802E-1
1.671000E+0,1.907034E+0,3.830365E-1
1.672000E+0,1.906376E+0,3.813928E-1
1.673000E+0,1.905719E+0,3.804067E-1
1.674000E+0,1.904075E+0,3.784343E-1
1.675000E+0,1.903747E+0,3.781055E-1
1.676000E+0,1.903089E+0,3.781055E-1
1.677000E+0,1.902432E+0,3.787630E-1
1.678000E+0,1.902432E+0,3.787630E-1
1.679000E+0,1.900788E+0,3.800779E-1
1.680000E+0,1.900130E+0,3.820503E-1
1.681000E+0,1.899473E+0,3.840227E-1
1.682000E+0,1.898487E+0,3.853376E-1
1.683000E+0,1.897501E+0,3.873100E-1
1.684000E+0,1.896843E+0,3.889537E-1
1.685000E+0,1.896186E+0,3.892824E-1
1.686000E+0,1.894213E+0,3.892824E-1
1.687000E+0,1.893885E+0,3.889537E-1
1.688000E+0,1.892570E+0,3.882962E-1
1.689000E+0,1.891255E+0,3.873100E-1
1.690000E+0,1.891255E+0,3.856663E-1
1.691000E+0,1.890269E+0,3.846802E-1
1.692000E+0,1.889940E+0,3.840227E-1
1.693000E+0,1.889282E+0,3.840227E-1
1.694000E+0,1.888625E+0,3.846802E-1
1.695000E+0,1.887310E+0,3.869813E-1
1.696000E+0,1.886981E+0,3.879675E-1
1.697000E+0,1.885995E+0,3.899398E-1
1.698000E+0,1.885338E+0,3.922410E-1
1.699000E+0,1.884680E+0,3.938846E-1
1.700000E+0,1.883365E+0,3.955283E-1
1.701000E+0,1.883036E+0,3.958570E-1
1.702000E+0,1.882050E+0,3.968432E-1
1.703000E+0,1.881064E+0,3.961857E-1
1.704000E+0,1.880407E+0,3.958570E-1
1.705000E+0,1.879092E+0,3.945421E-1
1.706000E+0,1.878763E+0,3.938846E-1
1.707000E+0,1.878105E+0,3.928984E-1
1.708000E+0,1.877448E+0,3.922410E-1
1.709000E+0,1.876133E+0,3.915835E-1
1.710000E+0,1.875147E+0,3.922410E-1
1.711000E+0,1.874489E+0,3.928984E-1
1.712000E+0,1.873832E+0,3.951995E-1
1.713000E+0,1.873175E+0,3.971719E-1
1.714000E+0,1.871860E+0,3.991443E-1
1.715000E+0,1.871860E+0,4.011167E-1
1.716000E+0,1.870545E+0,4.027604E-1
1.717000E+0,1.870216E+0,4.040753E-1
1.718000E+0,1.870216E+0,4.047327E-1
1.719000E+0,1.868901E+0,4.047327E-1
1.720000E+0,1.868244E+0,4.050615E-1
1.721000E+0,1.867586E+0,4.040753E-1
1.722000E+0,1.866271E+0,4.030891E-1
1.723000E+0,1.865614E+0,4.021029E-1
1.724000E+0,1.864956E+0,4.007880E-1
1.725000E+0,1.863313E+0,4.001305E-1
1.726000E+0,1.863313E+0,4.001305E-1
1.727000E+0,1.862326E+0,4.007880E-1
1.728000E+0,1.861340E+0,4.021029E-1
1.729000E+0,1.860354E+0,4.024316E-1
1.730000E+0,1.860354E+0,4.050615E-1
1.731000E+0,1.859697E+0,4.080200E-1
1.732000E+0,1.859039E+0,4.103212E-1
1.733000E+0,1.858710E+0,4.119648E-1
1.734000E+0,1.857724E+0,4.132797E-1
1.735000E+0,1.856738E+0,4.139372E-1
1.736000E+0,1.856080E+0,4.139372E-1
1.737000E+0,1.855423E+0,4.136085E-1
1.738000E+0,1.854437E+0,4.126223E-1
1.739000E+0,1.853779E+0,4.116361E-1
1.740000E+0,1.853122E+0,4.106499E-1
1.741000E+0,1.852464E+0,4.103212E-1
1.742000E+0,1.850821E+0,4.090062E-1
1.743000E+0,1.850821E+0,4.103212E-1
1.744000E+0,1.850492E+0,4.109786E-1
1.745000E+0,1.848848E+0,4.129510E-1
1.746000E+0,1.849506E+0,4.145947E-1
1.747000E+0,1.848520E+0,4.168958E-1
1.748000E+0,1.847205E+0,4.185394E-1
1.749000E+0,1.846219E+0,4.214980E-1
1.750000E+0,1.846219E+0,4.231417E-1
1.751000E+0,1.845890E+0,4.244566E-1
1.752000E+0,1.845232E+0,4.247853E-1
1.753000E+0,1.844246E+0,4.237991E-1
1.754000E+0,1.843260E+0,4.234704E-1
1.755000E+0,1.843260E+0,4.234704E-1
1.756000E+0,1.842274E+0,4.224842E-1
1.757000E+0,1.841616E+0,4.224842E-1
1.758000E+0,1.840959E+0,4.211693E-1
1.759000E+0,1.840301E+0,4.211693E-1
1.760000E+0,1.838986E+0,4.211693E-1
1.761000E+0,1.838986E+0,4.224842E-1
1.762000E+0,1.838329E+0,4.241279E-1
1.763000E+0,1.837672E+0,4.261003E-1
1.764000E+0,1.837014E+0,4.290588E-1
1.765000E+0,1.836357E+0,4.313599E-1
1.766000E+0,1.835042E+0,4.333323E-1
1.767000E+0,1.835042E+0,4.343185E-1
1.768000E+0,1.835042E+0,4.362909E-1
1.769000E+0,1.834055E+0,4.359622E-1
1.770000E+0,1.833069E+0,4.359622E-1
1.771000E+0,1.832412E+0,4.349760E-1
1.772000E+0,1.832412E+0,4.343185E-1
1.773000E+0,1.831097E+0,4.326749E-1
1.774000E+0,1.830768E+0,4.326749E-1
1.775000E+0,1.830111E+0,4.316887E-1
1.776000E+0,1.829125E+0,4.313599E-1
1.777000E+0,1.828467E+0,4.336611E-1
1.778000E+0,1.828138E+0,4.349760E-1
1.779000E+0,1.827481E+0,4.359622E-1
1.780000E+0,1.826823E+0,4.379346E-1
1.781000E+0,1.826823E+0,4.402357E-1
1.782000E+0,1.825837E+0,4.422081E-1
1.783000E+0,1.825508E+0,4.441805E-1
1.784000E+0,1.824851E+0,4.458241E-1
1.785000E+0,1.824194E+0,4.461528E-1
1.786000E+0,1.823207E+0,4.461528E-1
1.787000E+0,1.822550E+0,4.454954E-1
1.788000E+0,1.822221E+0,4.445092E-1
1.789000E+0,1.821892E+0,4.441805E-1
1.790000E+0,1.821892E+0,4.431943E-1
1.791000E+0,1.820906E+0,4.418793E-1
1.792000E+0,1.819920E+0,4.412219E-1
1.793000E+0,1.818605E+0,4.418793E-1
1.794000E+0,1.818934E+0,4.425368E-1
1.795000E+0,1.817619E+0,4.438517E-1
1.796000E+0,1.817948E+0,4.454954E-1
1.797000E+0,1.817290E+0,4.477965E-1
1.798000E+0,1.816304E+0,4.504263E-1
1.799000E+0,1.816304E+0,4.517413E-1
1.800000E+0,1.815975E+0,4.533849E-1
1.801000E+0,1.815647E+0,4.546998E-1
1.802000E+0,1.814660E+0,4.553573E-1
1.803000E+0,1.814332E+0,4.543711E-1
1.804000E+0,1.813674E+0,4.540424E-1
1.805000E+0,1.813017E+0,4.530562E-1
1.806000E+0,1.812359E+0,4.520700E-1
1.807000E+0,1.812030E+0,4.510838E-1
1.808000E+0,1.811044E+0,4.500976E-1
1.809000E+0,1.811373E+0,4.494402E-1
1.810000E+0,1.810058E+0,4.497689E-1
1.811000E+0,1.810058E+0,4.514125E-1
1.812000E+0,1.809401E+0,4.523987E-1
1.813000E+0,1.809072E+0,4.546998E-1
1.814000E+0,1.808743E+0,4.563435E-1
1.815000E+0,1.808743E+0,4.576584E-1
1.816000E+0,1.808743E+0,4.602883E-1
1.817000E+0,1.808743E+0,4.616032E-1
1.818000E+0,1.807757E+0,4.629181E-1
1.819000E+0,1.806442E+0,4.625894E-1
1.820000E+0,1.805785E+0,4.616032E-1
1.821000E+0,1.805127E+0,4.612745E-1
1.822000E+0,1.804470E+0,4.599595E-1
1.823000E+0,1.804470E+0,4.589733E-1
1.824000E+0,1.803483E+0,4.576584E-1
1.825000E+0,1.803483E+0,4.573297E-1
1.826000E+0,1.802826E+0,4.570010E-1
1.827000E+0,1.803155E+0,4.576584E-1
1.828000E+0,1.802169E+0,4.593021E-1
1.829000E+0,1.801511E+0,4.606170E-1
1.830000E+0,1.801511E+0,4.622607E-1
1.831000E+0,1.800525E+0,4.635756E-1
1.832000E+0,1.800854E+0,4.662054E-1
1.833000E+0,1.799539E+0,4.671916E-1
1.834000E+0,1.799539E+0,4.688353E-1
1.835000E+0,1.799539E+0,4.698215E-1
1.836000E+0,1.799539E+0,4.691640E-1
1.837000E+0,1.798224E+0,4.688353E-1
1.838000E+0,1.797895E+0,4.681778E-1
1.839000E+0,1.797895E+0,4.662054E-1
1.840000E+0,1.797238E+0,4.655480E-1
1.841000E+0,1.796909E+0,4.642330E-1
1.842000E+0,1.795594E+0,4.632469E-1
1.843000E+0,1.795265E+0,4.635756E-1
1.844000E+0,1.795594E+0,4.648905E-1
1.845000E+0,1.795265E+0,4.655480E-1
1.846000E+0,1.794936E+0,4.675204E-1
1.847000E+0,1.794279E+0,4.685065E-1
1.848000E+0,1.793950E+0,4.714651E-1
1.849000E+0,1.793622E+0,4.724513E-1
1.850000E+0,1.793950E+0,4.734375E-1
1.851000E+0,1.792635E+0,4.747524E-1
1.852000E+0,1.792307E+0,4.744237E-1
1.853000E+0,1.791978E+0,4.744237E-1
1.854000E+0,1.791320E+0,4.744237E-1
1.855000E+0,1.791649E+0,4.724513E-1
1.856000E+0,1.791320E+0,4.714651E-1
1.857000E+0,1.790663E+0,4.708077E-1
1.858000E+0,1.790005E+0,4.701502E-1
1.859000E+0,1.789019E+0,4.688353E-1
1.860000E+0,1.789348E+0,4.694927E-1
1.861000E+0,1.789677E+0,4.711364E-1
1.862000E+0,1.788033E+0,4.717939E-1
1.863000E+0,1.788362E+0,4.734375E-1
1.864000E+0,1.788362E+0,4.747524E-1
1.865000E+0,1.788362E+0,4.767248E-1
1.866000E+0,1.787376E+0,4.783685E-1
1.867000E+0,1.787704E+0,4.796834E-1
1.868000E+0,1.786718E+0,4.806696E-1
1.869000E+0,1.786718E+0,4.803409E-1
1.870000E+0,1.786389E+0,4.793547E-1
1.871000E+0,1.785732E+0,4.786972E-1
1.872000E+0,1.785403E+0,4.780397E-1
1.873000E+0,1.785075E+0,4.757386E-1
1.874000E+0,1.785075E+0,4.754099E-1
1.875000E+0,1.784746E+0,4.744237E-1
1.876000E+0,1.784746E+0,4.737662E-1
1.877000E+0,1.784417E+0,4.744237E-1
1.878000E+0,1.783431E+0,4.750812E-1
1.879000E+0,1.783102E+0,4.770536E-1
1.880000E+0,1.783431E+0,4.783685E-1
1.881000E+0,1.783102E+0,4.803409E-1
1.882000E+0,1.782773E+0,4.823132E-1
1.883000E+0,1.783102E+0,4.836282E-1
1.884000E+0,1.782116E+0,4.842856E-1
1.885000E+0,1.781458E+0,4.852718E-1
1.886000E+0,1.781458E+0,4.849431E-1
1.887000E+0,1.781458E+0,4.842856E-1
1.888000E+0,1.781458E+0,4.832994E-1
1.889000E+0,1.780472E+0,4.816558E-1
1.890000E+0,1.780472E+0,4.803409E-1
1.891000E+0,1.780144E+0,4.796834E-1
1.892000E+0,1.780144E+0,4.790259E-1
1.893000E+0,1.779157E+0,4.790259E-1
1.894000E+0,1.779486E+0,4.803409E-1
1.895000E+0,1.779486E+0,4.809983E-1
1.896000E+0,1.779157E+0,4.829707E-1
1.897000E+0,1.777842E+0,4.839569E-1
1.898000E+0,1.778171E+0,4.862580E-1
1.899000E+0,1.778500E+0,4.875729E-1
1.900000E+0,1.779157E+0,4.888879E-1
1.901000E+0,1.777842E+0,4.905315E-1
1.902000E+0,1.777842E+0,4.905315E-1
1.903000E+0,1.777514E+0,4.895453E-1
1.904000E+0,1.776528E+0,4.888879E-1
1.905000E+0,1.776528E+0,4.879017E-1
1.906000E+0,1.776528E+0,4.862580E-1
1.907000E+0,1.776856E+0,4.846144E-1
1.908000E+0,1.776528E+0,4.846144E-1
1.909000E+0,1.775541E+0,4.839569E-1
1.910000E+0,1.775541E+0,4.846144E-1
1.911000E+0,1.776199E+0,4.852718E-1
1.912000E+0,1.775541E+0,4.862580E-1
1.913000E+0,1.775541E+0,4.879017E-1
1.914000E+0,1.775541E+0,4.905315E-1
1.915000E+0,1.774884E+0,4.915177E-1
1.916000E+0,1.774884E+0,4.931614E-1
1.917000E+0,1.774555E+0,4.948050E-1
1.918000E+0,1.775213E+0,4.954625E-1
1.919000E+0,1.774555E+0,4.948050E-1
1.920000E+0,1.773898E+0,4.948050E-1
1.921000E+0,1.774226E+0,4.934901E-1
1.922000E+0,1.773898E+0,4.925039E-1
1.923000E+0,1.773569E+0,4.911890E-1
1.924000E+0,1.773240E+0,4.895453E-1
1.925000E+0,1.773240E+0,4.892166E-1
1.926000E+0,1.772911E+0,4.879017E-1
1.927000E+0,1.772254E+0,4.882304E-1
1.928000E+0,1.772254E+0,4.898741E-1
1.929000E+0,1.772583E+0,4.915177E-1
1.930000E+0,1.773240E+0,4.925039E-1
1.931000E+0,1.771925E+0,4.948050E-1
1.932000E+0,1.772254E+0,4.967774E-1
1.933000E+0,1.771597E+0,4.984211E-1
1.934000E+0,1.772583E+0,4.987498E-1
1.935000E+0,1.771925E+0,4.990785E-1
1.936000E+0,1.771925E+0,4.987498E-1
1.937000E+0,1.771268E+0,4.984211E-1
1.938000E+0,1.771268E+0,4.967774E-1
1.939000E+0,1.770939E+0,4.957912E-1
1.940000E+0,1.770282E+0,4.934901E-1
1.941000E+0,1.770610E+0,4.931614E-1
1.942000E+0,1.769953E+0,4.925039E-1
1.943000E+0,1.770282E+0,4.925039E-1
1.944000E+0,1.769953E+0,4.928326E-1
1.945000E+0,1.769953E+0,4.941476E-1
1.946000E+0,1.770282E+0,4.951338E-1
1.947000E+0,1.770282E+0,4.967774E-1
1.948000E+0,1.770282E+0,4.980923E-1
1.949000E+0,1.770282E+0,5.000647E-1
1.950000E+0,1.769953E+0,5.017084E-1
1.951000E+0,1.769953E+0,5.023658E-1
1.952000E+0,1.769624E+0,5.020371E-1
1.953000E+0,1.769624E+0,5.013796E-1
1.954000E+0,1.769295E+0,5.003934E-1
1.955000E+0,1.769295E+0,4.997360E-1
1.956000E+0,1.769295E+0,4.984211E-1
1.957000E+0,1.768967E+0,4.971061E-1
1.958000E+0,1.768309E+0,4.954625E-1
1.959000E+0,1.768638E+0,4.951338E-1
1.960000E+0,1.767981E+0,4.944763E-1
1.961000E+0,1.767981E+0,4.967774E-1
1.962000E+0,1.768638E+0,4.971061E-1
1.963000E+0,1.767323E+0,4.987498E-1
1.964000E+0,1.768309E+0,4.994073E-1
1.965000E+0,1.767981E+0,5.013796E-1
1.966000E+0,1.767981E+0,5.030233E-1
1.967000E+0,1.767981E+0,5.046670E-1
1.968000E+0,1.767981E+0,5.046670E-1
1.969000E+0,1.768309E+0,5.040095E-1
1.970000E+0,1.767652E+0,5.033520E-1
1.971000E+0,1.767323E+0,5.023658E-1
1.972000E+0,1.767323E+0,5.007222E-1
1.973000E+0,1.768309E+0,4.990785E-1
1.974000E+0,1.766666E+0,4.987498E-1
1.975000E+0,1.766994E+0,4.977636E-1
1.976000E+0,1.766666E+0,4.964487E-1
1.977000E+0,1.767323E+0,4.974349E-1
1.978000E+0,1.766994E+0,4.977636E-1
1.979000E+0,1.767323E+0,4.987498E-1
1.980000E+0,1.767323E+0,4.997360E-1
1.981000E+0,1.767652E+0,5.026946E-1
1.982000E+0,1.766994E+0,5.033520E-1
1.983000E+0,1.767323E+0,5.049957E-1
1.984000E+0,1.767323E+0,5.059819E-1
1.985000E+0,1.767652E+0,5.063106E-1
1.986000E+0,1.767323E+0,5.056531E-1
1.987000E+0,1.766666E+0,5.049957E-1
1.988000E+0,1.766337E+0,5.033520E-1
1.989000E+0,1.766666E+0,5.023658E-1
1.990000E+0,1.766666E+0,5.000647E-1
1.991000E+0,1.766666E+0,4.990785E-1
1.992000E+0,1.766337E+0,4.984211E-1
1.993000E+0,1.766337E+0,4.990785E-1
1.994000E+0,1.766337E+0,4.984211E-1
1.995000E+0,1.766666E+0,4.990785E-1
1.996000E+0,1.766666E+0,5.007222E-1
1.997000E+0,1.766008E+0,5.030233E-1
1.998000E+0,1.766666E+0,5.043382E-1
1.999000E+0,1.766337E+0,5.046670E-1
2.000000E+0,1.766666E+0,5.063106E-1
2.001000E+0,1.766994E+0,5.076255E-1
2.002000E+0,1.766008E+0,5.069681E-1
2.003000E+0,1.766008E+0,5.069681E-1
2.004000E+0,1.766666E+0,5.049957E-1
2.005000E+0,1.766666E+0,5.036808E-1
2.006000E+0,1.766994E+0,5.026946E-1
2.007000E+0,1.766337E+0,5.013796E-1
2.008000E+0,1.766666E+0,4.997360E-1
2.009000E+0,1.766337E+0,4.997360E-1
2.010000E+0,1.766337E+0,5.000647E-1
2.011000E+0,1.766666E+0,5.003934E-1
2.012000E+0,1.766337E+0,5.010509E-1
2.013000E+0,1.766337E+0,5.030233E-1
2.014000E+0,1.765679E+0,5.040095E-1
2.015000E+0,1.766337E+0,5.049957E-1
2.016000E+0,1.766994E+0,5.069681E-1
2.017000E+0,1.766994E+0,5.076255E-1
2.018000E+0,1.766666E+0,5.082830E-1
2.019000E+0,1.766666E+0,5.086117E-1
2.020000E+0,1.766666E+0,5.072968E-1
2.021000E+0,1.766337E+0,5.063106E-1
2.022000E+0,1.766337E+0,5.046670E-1
2.023000E+0,1.766994E+0,5.030233E-1
2.024000E+0,1.766994E+0,5.023658E-1
2.025000E+0,1.766994E+0,5.010509E-1
2.026000E+0,1.767652E+0,5.007222E-1
2.027000E+0,1.766994E+0,5.010509E-1
2.028000E+0,1.767652E+0,5.010509E-1
2.029000E+0,1.767323E+0,5.020371E-1
2.030000E+0,1.767652E+0,5.036808E-1
2.031000E+0,1.767323E+0,5.063106E-1
2.032000E+0,1.767652E+0,5.069681E-1
2.033000E+0,1.767981E+0,5.089405E-1
2.034000E+0,1.767323E+0,5.099266E-1
2.035000E+0,1.767652E+0,5.099266E-1
2.036000E+0,1.766337E+0,5.095979E-1
2.037000E+0,1.767652E+0,5.079543E-1
2.038000E+0,1.767323E+0,5.066393E-1
2.039000E+0,1.767652E+0,5.053244E-1
2.040000E+0,1.767652E+0,5.043382E-1
2.041000E+0,1.767323E+0,5.026946E-1
2.042000E+0,1.767652E+0,5.017084E-1
2.043000E+0,1.767652E+0,5.020371E-1
2.044000E+0,1.767652E+0,5.023658E-1
2.045000E+0,1.767981E+0,5.033520E-1
2.046000E+0,1.768638E+0,5.049957E-1
2.047000E+0,1.767981E+0,5.059819E-1
2.048000E+0,1.767981E+0,5.076255E-1
2.049000E+0,1.768309E+0,5.095979E-1
2.050000E+0,1.769624E+0,5.102554E-1
2.051000E+0,1.768638E+0,5.109128E-1
2.052000E+0,1.768638E+0,5.109128E-1
2.053000E+0,1.768309E+0,5.099266E-1
2.054000E+0,1.768309E+0,5.089405E-1
2.055000E+0,1.768309E+0,5.079543E-1
2.056000E+0,1.769624E+0,5.063106E-1
2.057000E+0,1.769295E+0,5.046670E-1
2.058000E+0,1.769295E+0,5.040095E-1
2.059000E+0,1.768638E+0,5.033520E-1
2.060000E+0,1.769295E+0,5.023658E-1
2.061000E+0,1.769624E+0,5.036808E-1
2.062000E+0,1.769953E+0,5.049957E-1
2.063000E+0,1.769953E+0,5.059819E-1
2.064000E+0,1.769624E+0,5.079543E-1
2.065000E+0,1.769953E+0,5.095979E-1
2.066000E+0,1.769953E+0,5.115703E-1
2.067000E+0,1.769953E+0,5.118990E-1
2.068000E+0,1.769953E+0,5.128852E-1
2.069000E+0,1.770282E+0,5.132140E-1
2.070000E+0,1.770610E+0,5.122278E-1
2.071000E+0,1.770939E+0,5.109128E-1
2.072000E+0,1.770939E+0,5.095979E-1
2.073000E+0,1.771268E+0,5.082830E-1
2.074000E+0,1.770939E+0,5.076255E-1
2.075000E+0,1.770939E+0,5.066393E-1
2.076000E+0,1.770610E+0,5.063106E-1
2.077000E+0,1.770939E+0,5.059819E-1
2.078000E+0,1.772254E+0,5.069681E-1
2.079000E+0,1.772254E+0,5.086117E-1
2.080000E+0,1.773240E+0,5.105841E-1
2.081000E+0,1.771597E+0,5.112416E-1
2.082000E+0,1.772254E+0,5.145289E-1
2.083000E+0,1.771925E+0,5.161725E-1
2.084000E+0,1.772254E+0,5.171587E-1
2.085000E+0,1.772583E+0,5.171587E-1
2.086000E+0,1.772583E+0,5.168300E-1
2.087000E+0,1.772911E+0,5.165013E-1
2.088000E+0,1.772254E+0,5.158438E-1
2.089000E+0,1.772911E+0,5.142001E-1
2.090000E+0,1.772911E+0,5.128852E-1
2.091000E+0,1.772911E+0,5.118990E-1
2.092000E+0,1.773240E+0,5.109128E-1
2.093000E+0,1.773569E+0,5.112416E-1
2.094000E+0,1.773898E+0,5.122278E-1
2.095000E+0,1.773898E+0,5.138714E-1
2.096000E+0,1.773898E+0,5.151863E-1
2.097000E+0,1.773569E+0,5.171587E-1
2.098000E+0,1.774226E+0,5.197886E-1
2.099000E+0,1.774555E+0,5.204460E-1
2.100000E+0,1.774884E+0,5.227472E-1
2.101000E+0,1.775870E+0,5.234046E-1
2.102000E+0,1.774884E+0,5.243908E-1
2.103000E+0,1.775541E+0,5.237333E-1
2.104000E+0,1.775870E+0,5.234046E-1
2.105000E+0,1.775870E+0,5.220897E-1
2.106000E+0,1.775870E+0,5.214322E-1
2.107000E+0,1.775541E+0,5.201173E-1
2.108000E+0,1.776528E+0,5.191311E-1
2.109000E+0,1.776199E+0,5.191311E-1
2.110000E+0,1.776528E+0,5.194598E-1
2.111000E+0,1.776856E+0,5.211035E-1
2.112000E+0,1.777514E+0,5.220897E-1
2.113000E+0,1.777185E+0,5.247195E-1
2.114000E+0,1.777842E+0,5.266919E-1
2.115000E+0,1.778171E+0,5.286643E-1
2.116000E+0,1.777842E+0,5.306367E-1
2.117000E+0,1.778171E+0,5.326091E-1
2.118000E+0,1.778171E+0,5.339240E-1
2.119000E+0,1.779157E+0,5.339240E-1
2.120000E+0,1.778829E+0,5.342527E-1
2.121000E+0,1.779486E+0,5.329378E-1
2.122000E+0,1.779815E+0,5.329378E-1
2.123000E+0,1.779815E+0,5.326091E-1
2.124000E+0,1.779815E+0,5.316229E-1
2.125000E+0,1.779815E+0,5.316229E-1
2.126000E+0,1.780144E+0,5.312942E-1
2.127000E+0,1.780472E+0,5.329378E-1
2.128000E+0,1.780472E+0,5.349102E-1
2.129000E+0,1.780801E+0,5.372113E-1
2.130000E+0,1.781787E+0,5.398412E-1
2.131000E+0,1.781130E+0,5.418136E-1
2.132000E+0,1.782116E+0,5.441147E-1
2.133000E+0,1.782116E+0,5.460871E-1
2.134000E+0,1.782116E+0,5.483882E-1
2.135000E+0,1.782445E+0,5.510180E-1
2.136000E+0,1.782445E+0,5.503606E-1
2.137000E+0,1.783760E+0,5.503606E-1
2.138000E+0,1.783102E+0,5.510180E-1
2.139000E+0,1.783102E+0,5.510180E-1
2.140000E+0,1.783431E+0,5.506893E-1
2.141000E+0,1.783760E+0,5.510180E-1
2.142000E+0,1.784746E+0,5.513467E-1
2.143000E+0,1.784746E+0,5.523329E-1
2.144000E+0,1.785075E+0,5.543053E-1
2.145000E+0,1.785403E+0,5.569352E-1
2.146000E+0,1.785732E+0,5.598938E-1
2.147000E+0,1.786389E+0,5.625236E-1
2.148000E+0,1.786061E+0,5.661396E-1
2.149000E+0,1.786718E+0,5.694270E-1
2.150000E+0,1.787376E+0,5.723855E-1
2.151000E+0,1.787704E+0,5.746866E-1
2.152000E+0,1.787376E+0,5.769878E-1
2.153000E+0,1.787704E+0,5.779740E-1
2.154000E+0,1.788362E+0,5.792889E-1
2.155000E+0,1.788691E+0,5.815900E-1
2.156000E+0,1.788362E+0,5.819187E-1
2.157000E+0,1.788691E+0,5.838911E-1
2.158000E+0,1.789348E+0,5.848773E-1
2.159000E+0,1.789348E+0,5.868497E-1
2.160000E+0,1.790005E+0,5.898083E-1
2.161000E+0,1.790334E+0,5.937530E-1
2.162000E+0,1.790663E+0,5.970404E-1
2.163000E+0,1.790334E+0,6.026288E-1
2.164000E+0,1.791649E+0,6.085459E-1
2.165000E+0,1.791320E+0,6.138056E-1
2.166000E+0,1.791978E+0,6.197228E-1
2.167000E+0,1.792307E+0,6.243250E-1
2.168000E+0,1.792964E+0,6.305709E-1
2.169000E+0,1.792964E+0,6.351731E-1
2.170000E+0,1.793622E+0,6.391179E-1
2.171000E+0,1.793622E+0,6.430627E-1
2.172000E+0,1.794279E+0,6.483224E-1
2.173000E+0,1.793950E+0,6.529246E-1
2.174000E+0,1.793622E+0,6.581843E-1
2.175000E+0,1.794608E+0,6.637727E-1
2.176000E+0,1.795265E+0,6.703474E-1
2.177000E+0,1.796251E+0,6.779082E-1
2.178000E+0,1.796580E+0,6.867839E-1
2.179000E+0,1.796251E+0,6.950022E-1
2.180000E+0,1.796909E+0,7.048641E-1
2.181000E+0,1.797566E+0,7.150548E-1
2.182000E+0,1.797895E+0,7.259029E-1
2.183000E+0,1.798553E+0,7.364223E-1
2.184000E+0,1.798553E+0,7.462842E-1
2.185000E+0,1.799210E+0,7.561462E-1
2.186000E+0,1.799539E+0,7.669943E-1
2.187000E+0,1.800196E+0,7.755413E-1
2.188000E+0,1.799867E+0,7.850745E-1
2.189000E+0,1.800525E+0,7.946077E-1
2.190000E+0,1.800854E+0,8.041409E-1
2.191000E+0,1.801511E+0,8.149890E-1
2.192000E+0,1.801840E+0,8.255084E-1
2.193000E+0,1.802497E+0,8.366853E-1
2.194000E+0,1.802826E+0,8.495058E-1
2.195000E+0,1.801511E+0,8.626550E-1
2.196000E+0,1.803155E+0,8.761330E-1
2.197000E+0,1.804141E+0,8.896109E-1
2.198000E+0,1.804141E+0,9.044038E-1
2.199000E+0,1.805456E+0,9.188680E-1
2.200000E+0,1.804798E+0,9.326747E-1
2.201000E+0,1.805127E+0,9.458240E-1
2.202000E+0,1.806113E+0,9.593019E-1
2.203000E+0,1.806771E+0,9.714650E-1
2.204000E+0,1.807100E+0,9.836280E-1
2.205000E+0,1.807428E+0,9.948049E-1
2.206000E+0,1.807757E+0,1.005653E+0
2.207000E+0,1.807757E+0,1.017159E+0
2.208000E+0,1.808414E+0,1.028664E+0
2.209000E+0,1.809072E+0,1.039841E+0
2.210000E+0,1.809401E+0,1.051347E+0
2.211000E+0,1.810058E+0,1.064496E+0
2.212000E+0,1.809729E+0,1.076001E+0
2.213000E+0,1.810387E+0,1.088165E+0
2.214000E+0,1.811373E+0,1.099670E+0
2.215000E+0,1.811373E+0,1.109861E+0
2.216000E+0,1.812030E+0,1.120709E+0
2.217000E+0,1.812688E+0,1.130242E+0
2.218000E+0,1.813345E+0,1.138132E+0
2.219000E+0,1.813345E+0,1.144049E+0
2.220000E+0,1.813674E+0,1.148980E+0
2.221000E+0,1.814332E+0,1.153911E+0
2.222000E+0,1.814660E+0,1.156212E+0
2.223000E+0,1.815318E+0,1.157527E+0
2.224000E+0,1.815647E+0,1.158842E+0
2.225000E+0,1.815647E+0,1.158513E+0
2.226000E+0,1.816304E+0,1.157527E+0
2.227000E+0,1.816961E+0,1.156541E+0
2.228000E+0,1.817619E+0,1.155226E+0
2.229000E+0,1.817948E+0,1.152267E+0
2.230000E+0,1.818605E+0,1.148322E+0
2.231000E+0,1.819263E+0,1.144706E+0
2.232000E+0,1.819591E+0,1.138460E+0
2.233000E+0,1.819920E+0,1.131228E+0
2.234000E+0,1.820249E+0,1.122353E+0
2.235000E+0,1.821235E+0,1.112162E+0
2.236000E+0,1.820906E+0,1.099341E+0
2.237000E+0,1.821892E+0,1.085863E+0
2.238000E+0,1.822221E+0,1.070084E+0
2.239000E+0,1.822550E+0,1.053648E+0
2.240000E+0,1.823536E+0,1.036554E+0
2.241000E+0,1.823536E+0,1.018474E+0
2.242000E+0,1.823865E+0,9.997358E-1
2.243000E+0,1.824522E+0,9.809982E-1
2.244000E+0,1.825180E+0,9.622605E-1
2.245000E+0,1.825180E+0,9.422079E-1
2.246000E+0,1.826495E+0,9.231415E-1
2.247000E+0,1.826495E+0,9.030889E-1
2.248000E+0,1.827152E+0,8.823789E-1
2.249000E+0,1.827481E+0,8.600252E-1
2.250000E+0,1.828467E+0,8.383289E-1
2.251000E+0,1.828796E+0,8.156465E-1
2.252000E+0,1.828796E+0,7.900054E-1
2.253000E+0,1.829782E+0,7.650219E-1
2.254000E+0,1.830111E+0,7.380659E-1
2.255000E+0,1.831097E+0,7.097951E-1
2.256000E+0,1.829453E+0,6.821817E-1
2.257000E+0,1.831426E+0,6.539108E-1
2.258000E+0,1.831097E+0,6.253112E-1
2.259000E+0,1.832083E+0,5.980265E-1
2.260000E+0,1.832741E+0,5.694270E-1
2.261000E+0,1.833398E+0,5.431285E-1
2.262000E+0,1.833727E+0,5.165013E-1
2.263000E+0,1.835042E+0,4.898741E-1
2.264000E+0,1.835042E+0,4.625894E-1
2.265000E+0,1.836028E+0,4.372771E-1
2.266000E+0,1.835699E+0,4.103212E-1
2.267000E+0,1.836357E+0,3.840227E-1
2.268000E+0,1.836685E+0,3.570668E-1
2.269000E+0,1.837014E+0,3.301108E-1
2.270000E+0,1.837672E+0,3.031549E-1
2.271000E+0,1.838329E+0,2.761989E-1
2.272000E+0,1.838329E+0,2.492430E-1
2.273000E+0,1.838986E+0,2.226158E-1
2.274000E+0,1.839973E+0,1.973035E-1
2.275000E+0,1.840301E+0,1.729774E-1
2.276000E+0,1.840630E+0,1.496375E-1
2.277000E+0,1.841288E+0,1.285988E-1
2.278000E+0,1.841945E+0,1.085462E-1
2.279000E+0,1.842602E+0,8.849358E-2
2.280000E+0,1.842931E+0,7.107084E-2
2.281000E+0,1.843589E+0,5.430557E-2
2.282000E+0,1.844575E+0,3.819775E-2
2.283000E+0,1.844575E+0,2.241867E-2
2.284000E+0,1.845232E+0,8.283241E-3
2.285000E+0,1.845561E+0,-6.509650E-3
2.286000E+0,1.846547E+0,-2.097381E-2
2.287000E+0,1.846219E+0,-3.280812E-2
2.288000E+0,1.847205E+0,-4.661482E-2
2.289000E+0,1.847862E+0,-5.844913E-2
2.290000E+0,1.847862E+0,-6.995471E-2
2.291000E+0,1.848848E+0,-7.981664E-2
2.292000E+0,1.848848E+0,-8.902111E-2
2.293000E+0,1.850163E+0,-9.691065E-2
2.294000E+0,1.850492E+0,-1.028278E-1
2.295000E+0,1.850821E+0,-1.084162E-1
2.296000E+0,1.852136E+0,-1.120323E-1
2.297000E+0,1.851807E+0,-1.159770E-1
2.298000E+0,1.852464E+0,-1.176207E-1
2.299000E+0,1.853779E+0,-1.205793E-1
2.300000E+0,1.854437E+0,-1.218942E-1
2.301000E+0,1.854766E+0,-1.238666E-1
2.302000E+0,1.854766E+0,-1.261677E-1
2.303000E+0,1.855423E+0,-1.287975E-1
2.304000E+0,1.856409E+0,-1.304412E-1
2.305000E+0,1.857067E+0,-1.333998E-1
2.306000E+0,1.857067E+0,-1.353722E-1
2.307000E+0,1.857395E+0,-1.366871E-1
2.308000E+0,1.858382E+0,-1.380020E-1
2.309000E+0,1.859039E+0,-1.386595E-1
2.310000E+0,1.859697E+0,-1.386595E-1
2.311000E+0,1.860354E+0,-1.376733E-1
2.312000E+0,1.861011E+0,-1.360296E-1
2.313000E+0,1.861011E+0,-1.340572E-1
2.314000E+0,1.861998E+0,-1.317561E-1
2.315000E+0,1.863313E+0,-1.291263E-1
2.316000E+0,1.862984E+0,-1.268252E-1
2.317000E+0,1.863641E+0,-1.248528E-1
2.318000E+0,1.864627E+0,-1.232091E-1
2.319000E+0,1.864627E+0,-1.222229E-1
2.320000E+0,1.865614E+0,-1.222229E-1
2.321000E+0,1.865942E+0,-1.218942E-1
2.322000E+0,1.865942E+0,-1.215655E-1
2.323000E+0,1.866600E+0,-1.212367E-1
2.324000E+0,1.867915E+0,-1.205793E-1
2.325000E+0,1.867915E+0,-1.209080E-1
2.326000E+0,1.868572E+0,-1.195931E-1
2.327000E+0,1.868901E+0,-1.179494E-1
2.328000E+0,1.869230E+0,-1.149908E-1
2.329000E+0,1.870545E+0,-1.126897E-1
2.330000E+0,1.871531E+0,-1.097312E-1
2.331000E+0,1.871531E+0,-1.057864E-1
2.332000E+0,1.872188E+0,-1.038140E-1
2.333000E+0,1.872517E+0,-1.005267E-1
2.334000E+0,1.873503E+0,-9.789684E-2
2.335000E+0,1.874161E+0,-9.658192E-2
2.336000E+0,1.874818E+0,-9.493826E-2
2.337000E+0,1.874818E+0,-9.428080E-2
2.338000E+0,1.874818E+0,-9.428080E-2
2.339000E+0,1.875804E+0,-9.460953E-2
2.340000E+0,1.877777E+0,-9.428080E-2
2.341000E+0,1.877777E+0,-9.395207E-2
2.342000E+0,1.877777E+0,-9.395207E-2
2.343000E+0,1.878105E+0,-9.197968E-2
2.344000E+0,1.879420E+0,-9.033603E-2
2.345000E+0,1.879749E+0,-8.803491E-2
2.346000E+0,1.880735E+0,-8.573380E-2
2.347000E+0,1.881722E+0,-8.244649E-2
2.348000E+0,1.882050E+0,-7.915918E-2
2.349000E+0,1.882379E+0,-7.587187E-2
2.350000E+0,1.883036E+0,-7.357075E-2
2.351000E+0,1.884023E+0,-7.159837E-2
2.352000E+0,1.884680E+0,-7.028345E-2
2.353000E+0,1.885009E+0,-6.962598E-2
2.354000E+0,1.885666E+0,-6.929725E-2
2.355000E+0,1.885995E+0,-6.929725E-2
2.356000E+0,1.886324E+0,-6.896852E-2
2.357000E+0,1.887310E+0,-6.962598E-2
2.358000E+0,1.887967E+0,-6.863979E-2
2.359000E+0,1.888625E+0,-6.798233E-2
2.360000E+0,1.888625E+0,-6.765360E-2
2.361000E+0,1.889611E+0,-6.469502E-2
2.362000E+0,1.890926E+0,-6.272263E-2
2.363000E+0,1.890597E+0,-6.009279E-2
2.364000E+0,1.890926E+0,-5.680548E-2
2.365000E+0,1.892241E+0,-5.384690E-2
2.366000E+0,1.892570E+0,-5.088832E-2
2.367000E+0,1.893556E+0,-4.891594E-2
2.368000E+0,1.893885E+0,-4.727228E-2
2.369000E+0,1.894213E+0,-4.628609E-2
2.370000E+0,1.895199E+0,-4.595736E-2
2.371000E+0,1.895528E+0,-4.562863E-2
2.372000E+0,1.895857E+0,-4.562863E-2
2.373000E+0,1.896843E+0,-4.628609E-2
2.374000E+0,1.897172E+0,-4.562863E-2
2.375000E+0,1.898158E+0,-4.529990E-2
2.376000E+0,1.898816E+0,-4.529990E-2
2.377000E+0,1.898487E+0,-4.299878E-2
2.378000E+0,1.899802E+0,-4.102639E-2
2.379000E+0,1.900130E+0,-3.872528E-2
2.380000E+0,1.901445E+0,-3.543797E-2
2.381000E+0,1.902103E+0,-3.280812E-2
2.382000E+0,1.902760E+0,-3.017827E-2
2.383000E+0,1.903747E+0,-2.721970E-2
2.384000E+0,1.904404E+0,-2.623350E-2
2.385000E+0,1.904404E+0,-2.426112E-2
2.386000E+0,1.905390E+0,-2.360366E-2
2.387000E+0,1.906048E+0,-2.327493E-2
2.388000E+0,1.906376E+0,-2.393239E-2
2.389000E+0,1.907363E+0,-2.327493E-2
2.390000E+0,1.908020E+0,-2.426112E-2
2.391000E+0,1.907691E+0,-2.360366E-2
2.392000E+0,1.908677E+0,-2.327493E-2
2.393000E+0,1.909664E+0,-2.294620E-2
2.394000E+0,1.910650E+0,-2.130254E-2
2.395000E+0,1.910650E+0,-1.867269E-2
2.396000E+0,1.911636E+0,-1.571412E-2
2.397000E+0,1.912951E+0,-1.341300E-2
2.398000E+0,1.912622E+0,-1.012569E-2
2.399000E+0,1.913280E+0,-7.824573E-3
2.400000E+0,1.914266E+0,-5.852188E-3
2.401000E+0,1.914595E+0,-3.222341E-3
2.402000E+0,1.914923E+0,-2.893610E-3
2.403000E+0,1.915581E+0,-2.564879E-3
2.404000E+0,1.916567E+0,-2.236148E-3
2.405000E+0,1.916567E+0,-2.564879E-3
2.406000E+0,1.917224E+0,-2.564879E-3
2.407000E+0,1.918868E+0,-2.893610E-3
2.408000E+0,1.918211E+0,-3.222341E-3
2.409000E+0,1.918868E+0,-1.907417E-3
2.410000E+0,1.919526E+0,-5.924935E-4
2.411000E+0,1.920183E+0,7.224301E-4
2.412000E+0,1.920183E+0,3.352277E-3
2.413000E+0,1.921498E+0,5.653394E-3
2.414000E+0,1.922155E+0,8.611972E-3
2.415000E+0,1.921827E+0,1.124182E-2
2.416000E+0,1.923142E+0,1.354294E-2
2.417000E+0,1.923799E+0,1.584405E-2
2.418000E+0,1.924128E+0,1.748771E-2
2.419000E+0,1.924785E+0,1.781644E-2
2.420000E+0,1.925772E+0,1.748771E-2
2.421000E+0,1.926429E+0,1.880263E-2
2.422000E+0,1.926758E+0,1.781644E-2
2.423000E+0,1.927744E+0,1.683024E-2
2.424000E+0,1.928401E+0,1.683024E-2
2.425000E+0,1.928073E+0,1.683024E-2
2.426000E+0,1.929059E+0,1.781644E-2
2.427000E+0,1.930045E+0,1.978882E-2
2.428000E+0,1.930045E+0,2.176121E-2
2.429000E+0,1.931031E+0,2.406232E-2
2.430000E+0,1.931360E+0,2.636344E-2
2.431000E+0,1.932017E+0,2.899329E-2
2.432000E+0,1.932675E+0,3.129440E-2
2.433000E+0,1.933332E+0,3.425298E-2
2.434000E+0,1.933661E+0,3.556791E-2
2.435000E+0,1.934976E+0,3.655410E-2
2.436000E+0,1.935305E+0,3.721156E-2
2.437000E+0,1.935633E+0,3.688283E-2
2.438000E+0,1.936620E+0,3.721156E-2
2.439000E+0,1.936291E+0,3.655410E-2
2.440000E+0,1.937935E+0,3.556791E-2
2.441000E+0,1.937606E+0,3.556791E-2
2.442000E+0,1.938263E+0,3.556791E-2
2.443000E+0,1.938592E+0,3.655410E-2
2.444000E+0,1.939249E+0,3.852648E-2
2.445000E+0,1.940564E+0,4.082760E-2
2.446000E+0,1.940564E+0,4.312872E-2
2.447000E+0,1.941222E+0,4.542983E-2
2.448000E+0,1.941879E+0,4.805968E-2
2.449000E+0,1.942537E+0,5.068953E-2
2.450000E+0,1.942537E+0,5.331938E-2
2.451000E+0,1.943852E+0,5.397684E-2
2.452000E+0,1.944180E+0,5.562049E-2
2.453000E+0,1.944838E+0,5.627795E-2
2.454000E+0,1.945824E+0,5.463430E-2
2.455000E+0,1.945824E+0,5.496303E-2
2.456000E+0,1.946482E+0,5.397684E-2
2.457000E+0,1.946810E+0,5.430557E-2
2.458000E+0,1.946482E+0,5.430557E-2
2.459000E+0,1.947468E+0,5.397684E-2
2.460000E+0,1.948783E+0,5.496303E-2
2.461000E+0,1.949111E+0,5.660668E-2
2.462000E+0,1.949440E+0,5.923653E-2
2.463000E+0,1.949769E+0,6.088019E-2
2.464000E+0,1.950098E+0,6.351003E-2
2.465000E+0,1.950755E+0,6.646861E-2
2.466000E+0,1.951741E+0,6.844100E-2
2.467000E+0,1.951741E+0,7.041338E-2
2.468000E+0,1.952070E+0,7.172831E-2
2.469000E+0,1.952727E+0,7.172831E-2
2.470000E+0,1.953385E+0,7.172831E-2
2.471000E+0,1.953385E+0,7.074211E-2
2.472000E+0,1.954042E+0,7.074211E-2
2.473000E+0,1.954700E+0,7.041338E-2
2.474000E+0,1.955029E+0,6.942719E-2
2.475000E+0,1.956015E+0,6.942719E-2
2.476000E+0,1.956015E+0,7.041338E-2
2.477000E+0,1.956672E+0,7.107084E-2
2.478000E+0,1.957330E+0,7.337196E-2
2.479000E+0,1.958645E+0,7.501562E-2
2.480000E+0,1.958973E+0,7.731673E-2
2.481000E+0,1.958973E+0,8.027531E-2
2.482000E+0,1.959960E+0,8.257643E-2
2.483000E+0,1.959960E+0,8.454881E-2
2.484000E+0,1.960946E+0,8.619247E-2
2.485000E+0,1.961274E+0,8.652120E-2
2.486000E+0,1.961274E+0,8.684993E-2
2.487000E+0,1.961603E+0,8.684993E-2
2.488000E+0,1.961932E+0,8.717866E-2
2.489000E+0,1.962589E+0,8.553501E-2
2.490000E+0,1.962918E+0,8.454881E-2
2.491000E+0,1.964233E+0,8.422008E-2
2.492000E+0,1.964233E+0,8.454881E-2
2.493000E+0,1.963904E+0,8.389135E-2
2.494000E+0,1.964891E+0,8.586374E-2
2.495000E+0,1.966205E+0,8.816485E-2
2.496000E+0,1.966534E+0,8.980851E-2
2.497000E+0,1.966205E+0,9.309582E-2
2.498000E+0,1.966534E+0,9.473947E-2
2.499000E+0,1.967849E+0,9.638313E-2
2.500000E+0,1.968178E+0,9.868424E-2
2.501000E+0,1.968507E+0,1.003279E-1
2.502000E+0,1.968835E+0,1.003279E-1
2.503000E+0,1.969821E+0,1.003279E-1
2.504000E+0,1.969493E+0,1.003279E-1
2.505000E+0,1.971136E+0,9.868424E-2
2.506000E+0,1.970479E+0,9.868424E-2
2.507000E+0,1.971136E+0,9.704059E-2
2.508000E+0,1.970479E+0,9.704059E-2
2.509000E+0,1.972123E+0,9.704059E-2
2.510000E+0,1.972123E+0,9.736932E-2
2.511000E+0,1.973109E+0,9.901297E-2
2.512000E+0,1.972780E+0,1.013141E-1
2.513000E+0,1.973438E+0,1.032865E-1
2.514000E+0,1.973438E+0,1.052589E-1
2.515000E+0,1.974424E+0,1.072312E-1
2.516000E+0,1.974752E+0,1.101898E-1
2.517000E+0,1.975410E+0,1.108473E-1
2.518000E+0,1.975739E+0,1.115047E-1
2.519000E+0,1.975739E+0,1.128197E-1
2.520000E+0,1.976725E+0,1.118335E-1
2.521000E+0,1.976396E+0,1.108473E-1
2.522000E+0,1.977054E+0,1.105186E-1
2.523000E+0,1.978040E+0,1.092036E-1
2.524000E+0,1.978040E+0,1.085462E-1
2.525000E+0,1.978040E+0,1.082174E-1
2.526000E+0,1.979026E+0,1.075600E-1
2.527000E+0,1.978369E+0,1.088749E-1
2.528000E+0,1.979683E+0,1.101898E-1
2.529000E+0,1.979683E+0,1.118335E-1
2.530000E+0,1.980012E+0,1.141346E-1
2.531000E+0,1.980341E+0,1.161070E-1
2.532000E+0,1.981327E+0,1.187368E-1
2.533000E+0,1.981327E+0,1.203805E-1
2.534000E+0,1.981985E+0,1.216954E-1
2.535000E+0,1.982313E+0,1.223529E-1
2.536000E+0,1.982971E+0,1.223529E-1
2.537000E+0,1.982313E+0,1.223529E-1
2.538000E+0,1.982971E+0,1.207092E-1
2.539000E+0,1.983299E+0,1.203805E-1
2.540000E+0,1.983628E+0,1.197230E-1
2.541000E+0,1.983628E+0,1.184081E-1
2.542000E+0,1.983957E+0,1.180794E-1
2.543000E+0,1.983628E+0,1.184081E-1
2.544000E+0,1.984614E+0,1.193943E-1
2.545000E+0,1.985601E+0,1.207092E-1
2.546000E+0,1.985272E+0,1.230103E-1
2.547000E+0,1.986258E+0,1.249827E-1
2.548000E+0,1.985929E+0,1.266264E-1
2.549000E+0,1.986916E+0,1.289275E-1
2.550000E+0,1.986916E+0,1.302424E-1
2.551000E+0,1.987244E+0,1.308999E-1
2.552000E+0,1.987573E+0,1.315573E-1
2.553000E+0,1.987573E+0,1.312286E-1
2.554000E+0,1.987573E+0,1.312286E-1
2.555000E+0,1.987902E+0,1.295849E-1
2.556000E+0,1.988888E+0,1.282700E-1
2.557000E+0,1.988230E+0,1.279413E-1
2.558000E+0,1.988888E+0,1.266264E-1
2.559000E+0,1.988888E+0,1.272838E-1
2.560000E+0,1.990203E+0,1.272838E-1
2.561000E+0,1.990203E+0,1.282700E-1
2.562000E+0,1.990532E+0,1.305711E-1
2.563000E+0,1.990532E+0,1.318861E-1
2.564000E+0,1.990860E+0,1.341872E-1
2.565000E+0,1.990203E+0,1.361596E-1
2.566000E+0,1.991189E+0,1.378032E-1
2.567000E+0,1.991189E+0,1.394469E-1
2.568000E+0,1.992175E+0,1.401043E-1
2.569000E+0,1.991846E+0,1.397756E-1
2.570000E+0,1.992175E+0,1.394469E-1
2.571000E+0,1.992833E+0,1.387894E-1
2.572000E+0,1.992504E+0,1.378032E-1
2.573000E+0,1.993490E+0,1.364883E-1
2.574000E+0,1.992833E+0,1.361596E-1
2.575000E+0,1.993161E+0,1.351734E-1
2.576000E+0,1.993819E+0,1.348446E-1
2.577000E+0,1.994148E+0,1.361596E-1
2.578000E+0,1.994148E+0,1.371458E-1
2.579000E+0,1.994476E+0,1.384607E-1
2.580000E+0,1.994805E+0,1.410905E-1
2.581000E+0,1.995134E+0,1.424055E-1
2.582000E+0,1.995134E+0,1.450353E-1
2.583000E+0,1.995791E+0,1.466790E-1
2.584000E+0,1.995791E+0,1.476651E-1
2.585000E+0,1.996120E+0,1.479939E-1
2.586000E+0,1.996449E+0,1.476651E-1
2.587000E+0,1.996449E+0,1.463502E-1
2.588000E+0,1.996120E+0,1.456928E-1
2.589000E+0,1.996777E+0,1.447066E-1
2.590000E+0,1.996449E+0,1.437204E-1
2.591000E+0,1.997435E+0,1.420767E-1
2.592000E+0,1.997106E+0,1.420767E-1
2.593000E+0,1.998092E+0,1.420767E-1
2.594000E+0,1.997764E+0,1.433916E-1
2.595000E+0,1.997764E+0,1.447066E-1
2.596000E+0,1.998750E+0,1.460215E-1
2.597000E+0,1.998421E+0,1.483226E-1
2.598000E+0,1.998750E+0,1.502950E-1
2.599000E+0,1.998421E+0,1.522674E-1
2.600000E+0,1.999079E+0,1.532536E-1
2.601000E+0,1.998750E+0,1.552260E-1
2.602000E+0,1.999407E+0,1.548972E-1
2.603000E+0,1.999079E+0,1.542398E-1
2.604000E+0,1.998750E+0,1.535823E-1
2.605000E+0,2.000065E+0,1.522674E-1
2.606000E+0,2.000394E+0,1.506237E-1
2.607000E+0,2.000394E+0,1.496375E-1
2.608000E+0,2.001051E+0,1.489801E-1
2.609000E+0,2.000394E+0,1.486513E-1
2.610000E+0,2.001051E+0,1.486513E-1
2.611000E+0,2.001051E+0,1.496375E-1
2.612000E+0,2.001380E+0,1.516099E-1
2.613000E+0,2.000722E+0,1.532536E-1
2.614000E+0,2.001380E+0,1.548972E-1
2.615000E+0,2.001708E+0,1.568696E-1
2.616000E+0,2.001380E+0,1.591707E-1
2.617000E+0,2.002037E+0,1.604857E-1
2.618000E+0,2.002037E+0,1.611431E-1
2.619000E+0,2.002037E+0,1.608144E-1
2.620000E+0,2.002037E+0,1.598282E-1
2.621000E+0,2.002037E+0,1.585133E-1
2.622000E+0,2.002037E+0,1.575271E-1
2.623000E+0,2.003352E+0,1.565409E-1
2.624000E+0,2.002695E+0,1.558834E-1
2.625000E+0,2.002037E+0,1.545685E-1
2.626000E+0,2.002037E+0,1.545685E-1
2.627000E+0,2.003681E+0,1.555547E-1
2.628000E+0,2.003352E+0,1.558834E-1
2.629000E+0,2.003352E+0,1.578558E-1
2.630000E+0,2.004010E+0,1.598282E-1
2.631000E+0,2.003681E+0,1.608144E-1
2.632000E+0,2.004338E+0,1.634442E-1
2.633000E+0,2.004010E+0,1.644304E-1
2.634000E+0,2.004010E+0,1.657453E-1
2.635000E+0,2.004667E+0,1.660741E-1
2.636000E+0,2.004338E+0,1.667315E-1
2.637000E+0,2.004338E+0,1.650879E-1
2.638000E+0,2.005324E+0,1.634442E-1
2.639000E+0,2.004338E+0,1.621293E-1
2.640000E+0,2.004667E+0,1.601569E-1
2.641000E+0,2.004667E+0,1.604857E-1
2.642000E+0,2.004996E+0,1.601569E-1
2.643000E+0,2.004996E+0,1.594995E-1
2.644000E+0,2.005653E+0,1.601569E-1
2.645000E+0,2.005653E+0,1.614718E-1
2.646000E+0,2.005982E+0,1.634442E-1
2.647000E+0,2.006639E+0,1.654166E-1
2.648000E+0,2.006639E+0,1.664028E-1
2.649000E+0,2.005982E+0,1.683752E-1
2.650000E+0,2.006968E+0,1.690327E-1
2.651000E+0,2.005982E+0,1.706763E-1
2.652000E+0,2.006639E+0,1.710050E-1
2.653000E+0,2.006311E+0,1.696901E-1
2.654000E+0,2.006311E+0,1.690327E-1
2.655000E+0,2.006968E+0,1.680465E-1
2.656000E+0,2.005982E+0,1.664028E-1
2.657000E+0,2.006639E+0,1.654166E-1
2.658000E+0,2.005982E+0,1.644304E-1
2.659000E+0,2.006639E+0,1.637730E-1
2.660000E+0,2.007954E+0,1.637730E-1
2.661000E+0,2.006968E+0,1.644304E-1
2.662000E+0,2.007297E+0,1.660741E-1
2.663000E+0,2.007297E+0,1.680465E-1
2.664000E+0,2.007626E+0,1.700189E-1
2.665000E+0,2.007626E+0,1.713338E-1
2.666000E+0,2.007626E+0,1.726487E-1
2.667000E+0,2.006968E+0,1.739636E-1
2.668000E+0,2.007954E+0,1.749498E-1
2.669000E+0,2.007954E+0,1.742924E-1
2.670000E+0,2.007626E+0,1.736349E-1
2.671000E+0,2.008283E+0,1.729774E-1
2.672000E+0,2.008283E+0,1.706763E-1
2.673000E+0,2.007954E+0,1.696901E-1
2.674000E+0,2.008283E+0,1.687039E-1
2.675000E+0,2.007954E+0,1.667315E-1
2.676000E+0,2.007954E+0,1.670603E-1
2.677000E+0,2.008612E+0,1.677177E-1
2.678000E+0,2.008283E+0,1.687039E-1
2.679000E+0,2.008283E+0,1.696901E-1
2.680000E+0,2.008283E+0,1.719912E-1
2.681000E+0,2.008941E+0,1.729774E-1
2.682000E+0,2.009269E+0,1.749498E-1
2.683000E+0,2.008941E+0,1.762647E-1
2.684000E+0,2.009269E+0,1.772509E-1
2.685000E+0,2.008941E+0,1.769222E-1
2.686000E+0,2.008941E+0,1.769222E-1
2.687000E+0,2.009598E+0,1.759360E-1
2.688000E+0,2.009598E+0,1.749498E-1
2.689000E+0,2.009269E+0,1.733062E-1
2.690000E+0,2.009598E+0,1.716625E-1
2.691000E+0,2.009598E+0,1.706763E-1
2.692000E+0,2.009269E+0,1.703476E-1
2.693000E+0,2.009927E+0,1.700189E-1
2.694000E+0,2.009927E+0,1.706763E-1
2.695000E+0,2.009927E+0,1.710050E-1
2.696000E+0,2.010584E+0,1.733062E-1
2.697000E+0,2.009927E+0,1.746211E-1
2.698000E+0,2.010255E+0,1.772509E-1
2.699000E+0,2.010584E+0,1.772509E-1
2.700000E+0,2.010255E+0,1.792233E-1
2.701000E+0,2.011242E+0,1.808670E-1
2.702000E+0,2.010255E+0,1.798808E-1
2.703000E+0,2.010913E+0,1.795520E-1
2.704000E+0,2.010255E+0,1.788946E-1
2.705000E+0,2.009927E+0,1.772509E-1
2.706000E+0,2.010584E+0,1.756073E-1
2.707000E+0,2.010913E+0,1.752785E-1
2.708000E+0,2.010584E+0,1.746211E-1
2.709000E+0,2.010584E+0,1.733062E-1
2.710000E+0,2.010913E+0,1.739636E-1
2.711000E+0,2.010584E+0,1.746211E-1
2.712000E+0,2.011242E+0,1.756073E-1
2.713000E+0,2.011242E+0,1.769222E-1
2.714000E+0,2.010913E+0,1.785659E-1
2.715000E+0,2.010913E+0,1.802095E-1
2.716000E+0,2.011570E+0,1.818532E-1
2.717000E+0,2.011899E+0,1.831681E-1
2.718000E+0,2.011242E+0,1.834968E-1
2.719000E+0,2.011242E+0,1.828394E-1
2.720000E+0,2.011899E+0,1.821819E-1
2.721000E+0,2.011242E+0,1.808670E-1
2.722000E+0,2.010913E+0,1.792233E-1
2.723000E+0,2.010913E+0,1.779084E-1
2.724000E+0,2.011570E+0,1.769222E-1
2.725000E+0,2.011570E+0,1.759360E-1
2.726000E+0,2.011570E+0,1.752785E-1
2.727000E+0,2.011570E+0,1.759360E-1
2.728000E+0,2.012557E+0,1.762647E-1
2.729000E+0,2.012228E+0,1.782371E-1
2.730000E+0,2.011899E+0,1.798808E-1
2.731000E+0,2.011899E+0,1.815244E-1
2.732000E+0,2.012557E+0,1.825106E-1
2.733000E+0,2.011899E+0,1.844830E-1
2.734000E+0,2.011899E+0,1.861267E-1
2.735000E+0,2.012557E+0,1.854692E-1
2.736000E+0,2.012228E+0,1.848117E-1
2.737000E+0,2.012228E+0,1.838256E-1
2.738000E+0,2.012557E+0,1.831681E-1
2.739000E+0,2.012557E+0,1.815244E-1
2.740000E+0,2.012228E+0,1.798808E-1
2.741000E+0,2.012885E+0,1.788946E-1
2.742000E+0,2.013214E+0,1.779084E-1
2.743000E+0,2.012557E+0,1.785659E-1
2.744000E+0,2.012557E+0,1.792233E-1
2.745000E+0,2.013214E+0,1.802095E-1
2.746000E+0,2.012885E+0,1.818532E-1
2.747000E+0,2.013543E+0,1.831681E-1
2.748000E+0,2.012885E+0,1.851405E-1
2.749000E+0,2.013214E+0,1.871129E-1
2.750000E+0,2.013214E+0,1.880991E-1
2.751000E+0,2.013214E+0,1.877703E-1
2.752000E+0,2.013214E+0,1.887565E-1
2.753000E+0,2.013543E+0,1.877703E-1
2.754000E+0,2.013214E+0,1.861267E-1
2.755000E+0,2.012885E+0,1.854692E-1
2.756000E+0,2.013543E+0,1.838256E-1
2.757000E+0,2.013543E+0,1.828394E-1
2.758000E+0,2.013214E+0,1.815244E-1
2.759000E+0,2.013871E+0,1.815244E-1
2.760000E+0,2.013543E+0,1.818532E-1
2.761000E+0,2.013214E+0,1.821819E-1
2.762000E+0,2.013543E+0,1.838256E-1
2.763000E+0,2.013543E+0,1.857979E-1
2.764000E+0,2.013871E+0,1.867841E-1
2.765000E+0,2.014529E+0,1.887565E-1
2.766000E+0,2.014200E+0,1.904002E-1
2.767000E+0,2.013871E+0,1.913864E-1
2.768000E+0,2.013871E+0,1.917151E-1
2.769000E+0,2.013871E+0,1.910576E-1
2.770000E+0,2.014200E+0,1.897427E-1
2.771000E+0,2.013871E+0,1.884278E-1
2.772000E+0,2.013871E+0,1.874416E-1
2.773000E+0,2.014529E+0,1.857979E-1
2.774000E+0,2.013871E+0,1.841543E-1
2.775000E+0,2.013871E+0,1.834968E-1
2.776000E+0,2.013871E+0,1.834968E-1
2.777000E+0,2.014529E+0,1.841543E-1
2.778000E+0,2.013871E+0,1.851405E-1
2.779000E+0,2.014200E+0,1.864554E-1
2.780000E+0,2.014529E+0,1.880991E-1
2.781000E+0,2.014529E+0,1.904002E-1
2.782000E+0,2.014529E+0,1.930300E-1
2.783000E+0,2.015186E+0,1.946737E-1
2.784000E+0,2.014200E+0,1.963173E-1
2.785000E+0,2.014858E+0,1.959886E-1
2.786000E+0,2.014529E+0,1.963173E-1
2.787000E+0,2.015515E+0,1.966461E-1
2.788000E+0,2.014529E+0,1.950024E-1
2.789000E+0,2.014529E+0,1.946737E-1
2.790000E+0,2.014858E+0,1.936875E-1
2.791000E+0,2.013214E+0,1.936875E-1
2.792000E+0,2.014529E+0,1.940162E-1
2.793000E+0,2.014858E+0,1.943449E-1
2.794000E+0,2.014858E+0,1.953311E-1
2.795000E+0,2.014858E+0,1.973035E-1
2.796000E+0,2.015186E+0,1.992759E-1
2.797000E+0,2.015515E+0,2.019058E-1
2.798000E+0,2.015515E+0,2.038781E-1
2.799000E+0,2.014858E+0,2.058505E-1
2.800000E+0,2.016173E+0,2.071654E-1
2.801000E+0,2.015844E+0,2.081516E-1
2.802000E+0,2.015515E+0,2.084804E-1
2.803000E+0,2.015515E+0,2.074942E-1
2.804000E+0,2.015186E+0,2.071654E-1
2.805000E+0,2.015515E+0,2.058505E-1
2.806000E+0,2.015515E+0,2.045356E-1
2.807000E+0,2.015844E+0,2.028919E-1
2.808000E+0,2.015515E+0,2.025632E-1
2.809000E+0,2.015515E+0,2.012483E-1
2.810000E+0,2.015515E+0,2.012483E-1
2.811000E+0,2.015844E+0,2.025632E-1
2.812000E+0,2.016830E+0,2.028919E-1
2.813000E+0,2.016173E+0,2.042069E-1
2.814000E+0,2.015844E+0,2.051931E-1
2.815000E+0,2.015844E+0,2.068367E-1
2.816000E+0,2.016173E+0,2.078229E-1
2.817000E+0,2.016173E+0,2.078229E-1
2.818000E+0,2.015844E+0,2.074942E-1
2.819000E+0,2.016173E+0,2.068367E-1
2.820000E+0,2.016173E+0,2.051931E-1
2.821000E+0,2.015844E+0,2.035494E-1
2.822000E+0,2.015515E+0,2.012483E-1
2.823000E+0,2.016501E+0,1.982897E-1
2.824000E+0,2.016501E+0,1.976322E-1
2.825000E+0,2.015515E+0,1.966461E-1
2.826000E+0,2.015186E+0,1.956599E-1
2.827000E+0,2.016501E+0,1.950024E-1
2.828000E+0,2.016173E+0,1.956599E-1
2.829000E+0,2.015844E+0,1.966461E-1
2.830000E+0,2.016501E+0,1.982897E-1
2.831000E+0,2.015844E+0,2.002621E-1
2.832000E+0,2.016501E+0,2.022345E-1
2.833000E+0,2.017159E+0,2.028919E-1
2.834000E+0,2.015844E+0,2.035494E-1
2.835000E+0,2.016501E+0,2.032207E-1
2.836000E+0,2.015844E+0,2.032207E-1
2.837000E+0,2.016830E+0,2.015770E-1
2.838000E+0,2.016173E+0,2.005908E-1
2.839000E+0,2.015844E+0,1.989472E-1
2.840000E+0,2.016501E+0,1.973035E-1
2.841000E+0,2.016830E+0,1.959886E-1
2.842000E+0,2.016501E+0,1.953311E-1
2.843000E+0,2.016173E+0,1.946737E-1
2.844000E+0,2.017159E+0,1.953311E-1
2.845000E+0,2.016830E+0,1.959886E-1
2.846000E+0,2.016830E+0,1.963173E-1
2.847000E+0,2.017159E+0,1.976322E-1
2.848000E+0,2.016830E+0,1.992759E-1
2.849000E+0,2.016830E+0,1.999334E-1
2.850000E+0,2.018145E+0,2.019058E-1
2.851000E+0,2.017488E+0,2.019058E-1
2.852000E+0,2.017488E+0,2.019058E-1
2.853000E+0,2.017488E+0,2.002621E-1
2.854000E+0,2.017159E+0,1.992759E-1
2.855000E+0,2.017816E+0,1.976322E-1
2.856000E+0,2.017816E+0,1.963173E-1
2.857000E+0,2.017488E+0,1.943449E-1
2.858000E+0,2.015844E+0,1.930300E-1
2.859000E+0,2.017159E+0,1.927013E-1
2.860000E+0,2.017159E+0,1.917151E-1
2.861000E+0,2.017816E+0,1.927013E-1
2.862000E+0,2.017159E+0,1.936875E-1
2.863000E+0,2.017159E+0,1.953311E-1
2.864000E+0,2.017159E+0,1.959886E-1
2.865000E+0,2.017816E+0,1.982897E-1
2.866000E+0,2.017816E+0,1.996046E-1
2.867000E+0,2.017488E+0,2.002621E-1
2.868000E+0,2.017488E+0,2.005908E-1
2.869000E+0,2.017816E+0,1.999334E-1
2.870000E+0,2.016830E+0,1.996046E-1
2.871000E+0,2.017488E+0,1.969748E-1
2.872000E+0,2.018145E+0,1.953311E-1
2.873000E+0,2.017816E+0,1.940162E-1
2.874000E+0,2.017488E+0,1.920438E-1
2.875000E+0,2.017159E+0,1.910576E-1
2.876000E+0,2.017488E+0,1.904002E-1
2.877000E+0,2.018145E+0,1.913864E-1
2.878000E+0,2.018802E+0,1.913864E-1
2.879000E+0,2.018145E+0,1.933587E-1
2.880000E+0,2.017816E+0,1.950024E-1
2.881000E+0,2.018145E+0,1.963173E-1
2.882000E+0,2.018145E+0,1.979610E-1
2.883000E+0,2.018145E+0,1.992759E-1
2.884000E+0,2.017816E+0,1.989472E-1
2.885000E+0,2.018145E+0,1.989472E-1
2.886000E+0,2.017816E+0,1.992759E-1
2.887000E+0,2.018145E+0,1.976322E-1
2.888000E+0,2.017816E+0,1.959886E-1
2.889000E+0,2.018145E+0,1.946737E-1
2.890000E+0,2.017488E+0,1.927013E-1
2.891000E+0,2.017816E+0,1.930300E-1
2.892000E+0,2.017816E+0,1.904002E-1
2.893000E+0,2.017488E+0,1.907289E-1
2.894000E+0,2.018474E+0,1.913864E-1
2.895000E+0,2.018474E+0,1.933587E-1
2.896000E+0,2.018145E+0,1.943449E-1
2.897000E+0,2.018474E+0,1.956599E-1
2.898000E+0,2.018145E+0,1.966461E-1
2.899000E+0,2.018145E+0,1.996046E-1
2.900000E+0,2.018474E+0,1.999334E-1
2.901000E+0,2.017816E+0,2.009196E-1
2.902000E+0,2.018145E+0,2.005908E-1
2.903000E+0,2.017816E+0,1.992759E-1
2.904000E+0,2.018145E+0,1.989472E-1
2.905000E+0,2.018474E+0,1.973035E-1
2.906000E+0,2.018474E+0,1.963173E-1
2.907000E+0,2.018802E+0,1.943449E-1
2.908000E+0,2.018474E+0,1.933587E-1
2.909000E+0,2.019131E+0,1.920438E-1
2.910000E+0,2.018802E+0,1.927013E-1
2.911000E+0,2.018802E+0,1.933587E-1
2.912000E+0,2.018145E+0,1.946737E-1
2.913000E+0,2.018474E+0,1.963173E-1
2.914000E+0,2.018802E+0,1.979610E-1
2.915000E+0,2.018474E+0,1.999334E-1
2.916000E+0,2.018802E+0,2.012483E-1
2.917000E+0,2.019131E+0,2.022345E-1
2.918000E+0,2.019131E+0,2.025632E-1
2.919000E+0,2.019131E+0,2.012483E-1
2.920000E+0,2.018802E+0,2.009196E-1
2.921000E+0,2.019131E+0,1.992759E-1
2.922000E+0,2.019131E+0,1.982897E-1
2.923000E+0,2.018474E+0,1.966461E-1
2.924000E+0,2.019131E+0,1.950024E-1
2.925000E+0,2.018474E+0,1.943449E-1
2.926000E+0,2.018474E+0,1.936875E-1
2.927000E+0,2.018802E+0,1.943449E-1
2.928000E+0,2.019131E+0,1.950024E-1
2.929000E+0,2.019131E+0,1.963173E-1
2.930000E+0,2.019131E+0,1.979610E-1
2.931000E+0,2.018145E+0,1.989472E-1
2.932000E+0,2.019131E+0,2.009196E-1
2.933000E+0,2.018802E+0,2.019058E-1
2.934000E+0,2.018802E+0,2.032207E-1
2.935000E+0,2.019131E+0,2.032207E-1
2.936000E+0,2.019131E+0,2.022345E-1
2.937000E+0,2.018474E+0,2.015770E-1
2.938000E+0,2.019460E+0,2.002621E-1
2.939000E+0,2.017816E+0,1.986184E-1
2.940000E+0,2.019460E+0,1.973035E-1
2.941000E+0,2.019131E+0,1.953311E-1
2.942000E+0,2.018802E+0,1.946737E-1
2.943000E+0,2.018802E+0,1.946737E-1
2.944000E+0,2.019131E+0,1.956599E-1
2.945000E+0,2.019460E+0,1.966461E-1
2.946000E+0,2.019460E+0,1.979610E-1
2.947000E+0,2.019131E+0,1.996046E-1
2.948000E+0,2.019460E+0,2.015770E-1
2.949000E+0,2.018802E+0,2.028919E-1
2.950000E+0,2.018802E+0,2.042069E-1
2.951000E+0,2.020117E+0,2.051931E-1
2.952000E+0,2.019131E+0,2.038781E-1
2.953000E+0,2.019131E+0,2.038781E-1
2.954000E+0,2.019460E+0,2.032207E-1
2.955000E+0,2.019460E+0,2.009196E-1
2.956000E+0,2.019131E+0,1.999334E-1
2.957000E+0,2.019460E+0,1.982897E-1
2.958000E+0,2.019460E+0,1.969748E-1
2.959000E+0,2.019460E+0,1.959886E-1
2.960000E+0,2.018802E+0,1.973035E-1
2.961000E+0,2.019789E+0,1.969748E-1
2.962000E+0,2.019460E+0,1.989472E-1
2.963000E+0,2.019460E+0,1.996046E-1
2.964000E+0,2.019460E+0,2.012483E-1
2.965000E+0,2.020117E+0,2.035494E-1
2.966000E+0,2.020117E+0,2.048643E-1
2.967000E+0,2.019789E+0,2.058505E-1
2.968000E+0,2.019131E+0,2.058505E-1
2.969000E+0,2.019460E+0,2.055218E-1
2.970000E+0,2.019789E+0,2.042069E-1
2.971000E+0,2.019460E+0,2.028919E-1
2.972000E+0,2.019460E+0,2.019058E-1
2.973000E+0,2.020117E+0,1.999334E-1
2.974000E+0,2.019789E+0,1.986184E-1
2.975000E+0,2.019131E+0,1.982897E-1
2.976000E+0,2.019131E+0,1.982897E-1
2.977000E+0,2.019460E+0,1.982897E-1
2.978000E+0,2.020446E+0,1.992759E-1
2.979000E+0,2.020117E+0,2.005908E-1
2.980000E+0,2.020117E+0,2.019058E-1
2.981000E+0,2.019460E+0,2.042069E-1
2.982000E+0,2.020117E+0,2.048643E-1
2.983000E+0,2.020117E+0,2.068367E-1
2.984000E+0,2.020117E+0,2.078229E-1
2.985000E+0,2.020446E+0,2.065080E-1
2.986000E+0,2.019789E+0,2.058505E-1
2.987000E+0,2.020117E+0,2.051931E-1
2.988000E+0,2.019789E+0,2.032207E-1
2.989000E+0,2.019789E+0,2.019058E-1
2.990000E+0,2.019789E+0,2.005908E-1
2.991000E+0,2.020117E+0,1.989472E-1
2.992000E+0,2.020117E+0,1.986184E-1
2.993000E+0,2.019789E+0,1.979610E-1
2.994000E+0,2.020446E+0,1.992759E-1
2.995000E+0,2.019789E+0,1.996046E-1
2.996000E+0,2.019789E+0,2.015770E-1
2.997000E+0,2.020117E+0,2.032207E-1
2.998000E+0,2.020117E+0,2.042069E-1
2.999000E+0,2.020117E+0,2.058505E-1
3.000000E+0,2.020117E+0,2.065080E-1
3.001000E+0,2.020775E+0,2.065080E-1
3.002000E+0,2.020117E+0,2.074942E-1
3.003000E+0,2.019789E+0,2.065080E-1
3.004000E+0,2.020117E+0,2.051931E-1
3.005000E+0,2.020446E+0,2.032207E-1
3.006000E+0,2.019789E+0,2.028919E-1
3.007000E+0,2.019789E+0,2.009196E-1
3.008000E+0,2.020117E+0,1.999334E-1
3.009000E+0,2.019789E+0,1.992759E-1
3.010000E+0,2.020117E+0,1.996046E-1
3.011000E+0,2.020446E+0,2.005908E-1
3.012000E+0,2.020117E+0,2.012483E-1
3.013000E+0,2.020117E+0,2.028919E-1
3.014000E+0,2.020117E+0,2.038781E-1
3.015000E+0,2.020117E+0,2.061793E-1
3.016000E+0,2.020117E+0,2.071654E-1
3.017000E+0,2.020446E+0,2.088091E-1
3.018000E+0,2.020117E+0,2.088091E-1
3.019000E+0,2.020117E+0,2.071654E-1
3.020000E+0,2.020446E+0,2.068367E-1
3.021000E+0,2.020117E+0,2.055218E-1
3.022000E+0,2.020117E+0,2.038781E-1
3.023000E+0,2.020117E+0,2.022345E-1
3.024000E+0,2.019789E+0,2.009196E-1
3.025000E+0,2.019789E+0,1.999334E-1
3.026000E+0,2.019789E+0,1.996046E-1
3.027000E+0,2.020446E+0,2.005908E-1
3.028000E+0,2.020446E+0,2.009196E-1
3.029000E+0,2.020446E+0,2.025632E-1
3.030000E+0,2.019789E+0,2.032207E-1
3.031000E+0,2.020775E+0,2.051931E-1
3.032000E+0,2.020446E+0,2.071654E-1
3.033000E+0,2.020446E+0,2.078229E-1
3.034000E+0,2.020117E+0,2.084804E-1
3.035000E+0,2.020446E+0,2.084804E-1
3.036000E+0,2.019789E+0,2.074942E-1
3.037000E+0,2.020446E+0,2.065080E-1
3.038000E+0,2.020117E+0,2.051931E-1
3.039000E+0,2.020117E+0,2.045356E-1
3.040000E+0,2.019789E+0,2.022345E-1
3.041000E+0,2.020117E+0,2.005908E-1
3.042000E+0,2.020117E+0,2.002621E-1
3.043000E+0,2.019789E+0,1.992759E-1
3.044000E+0,2.020117E+0,2.009196E-1
3.045000E+0,2.020117E+0,2.015770E-1
3.046000E+0,2.020446E+0,2.032207E-1
3.047000E+0,2.020446E+0,2.048643E-1
3.048000E+0,2.020446E+0,2.055218E-1
3.049000E+0,2.019789E+0,2.065080E-1
3.050000E+0,2.020446E+0,2.088091E-1
3.051000E+0,2.020775E+0,2.094666E-1
3.052000E+0,2.019789E+0,2.084804E-1
3.053000E+0,2.019789E+0,2.081516E-1
3.054000E+0,2.020446E+0,2.068367E-1
3.055000E+0,2.019789E+0,2.051931E-1
3.056000E+0,2.020446E+0,2.038781E-1
3.057000E+0,2.020117E+0,2.025632E-1
3.058000E+0,2.020117E+0,2.005908E-1
3.059000E+0,2.020446E+0,2.009196E-1
3.060000E+0,2.020775E+0,2.009196E-1
3.061000E+0,2.020446E+0,2.012483E-1
3.062000E+0,2.020775E+0,2.022345E-1
3.063000E+0,2.020775E+0,2.042069E-1
3.064000E+0,2.021104E+0,2.055218E-1
3.065000E+0,2.020117E+0,2.074942E-1
3.066000E+0,2.020446E+0,2.078229E-1
3.067000E+0,2.020775E+0,2.097953E-1
3.068000E+0,2.020775E+0,2.097953E-1
3.069000E+0,2.020117E+0,2.084804E-1
3.070000E+0,2.020446E+0,2.074942E-1
3.071000E+0,2.020446E+0,2.065080E-1
3.072000E+0,2.020775E+0,2.045356E-1
3.073000E+0,2.020446E+0,2.035494E-1
3.074000E+0,2.020446E+0,2.022345E-1
3.075000E+0,2.020117E+0,2.012483E-1
3.076000E+0,2.020117E+0,2.005908E-1
3.077000E+0,2.020117E+0,2.009196E-1
3.078000E+0,2.020775E+0,2.019058E-1
3.079000E+0,2.020117E+0,2.028919E-1
3.080000E+0,2.020775E+0,2.045356E-1
3.081000E+0,2.020117E+0,2.058505E-1
3.082000E+0,2.020446E+0,2.071654E-1
3.083000E+0,2.020775E+0,2.088091E-1
3.084000E+0,2.020117E+0,2.091378E-1
3.085000E+0,2.019789E+0,2.094666E-1
3.086000E+0,2.019789E+0,2.084804E-1
3.087000E+0,2.019789E+0,2.068367E-1
3.088000E+0,2.020117E+0,2.058505E-1
3.089000E+0,2.019789E+0,2.042069E-1
3.090000E+0,2.019789E+0,2.025632E-1
3.091000E+0,2.019789E+0,2.005908E-1
3.092000E+0,2.019789E+0,2.002621E-1
3.093000E+0,2.019789E+0,2.002621E-1
3.094000E+0,2.020775E+0,2.009196E-1
3.095000E+0,2.020446E+0,2.022345E-1
3.096000E+0,2.020446E+0,2.032207E-1
3.097000E+0,2.020775E+0,2.055218E-1
3.098000E+0,2.019131E+0,2.058505E-1
3.099000E+0,2.020446E+0,2.074942E-1
3.100000E+0,2.020775E+0,2.084804E-1
3.101000E+0,2.020446E+0,2.088091E-1
3.102000E+0,2.020117E+0,2.071654E-1
3.103000E+0,2.020446E+0,2.071654E-1
3.104000E+0,2.020117E+0,2.058505E-1
3.105000E+0,2.019789E+0,2.038781E-1
3.106000E+0,2.019789E+0,2.025632E-1
3.107000E+0,2.019460E+0,2.002621E-1
3.108000E+0,2.020117E+0,1.996046E-1
3.109000E+0,2.020117E+0,1.989472E-1
3.110000E+0,2.020117E+0,1.986184E-1
3.111000E+0,2.019789E+0,1.986184E-1
3.112000E+0,2.020117E+0,2.002621E-1
3.113000E+0,2.020117E+0,2.012483E-1
3.114000E+0,2.020117E+0,2.019058E-1
3.115000E+0,2.020117E+0,2.032207E-1
3.116000E+0,2.020117E+0,2.042069E-1
3.117000E+0,2.020117E+0,2.032207E-1
3.118000E+0,2.020117E+0,2.038781E-1
3.119000E+0,2.020117E+0,2.022345E-1
3.120000E+0,2.020446E+0,2.009196E-1
3.121000E+0,2.020775E+0,1.982897E-1
3.122000E+0,2.020117E+0,1.966461E-1
3.123000E+0,2.020775E+0,1.953311E-1
3.124000E+0,2.020117E+0,1.943449E-1
3.125000E+0,2.020117E+0,1.950024E-1
3.126000E+0,2.020446E+0,1.969748E-1
3.127000E+0,2.020446E+0,2.002621E-1
3.128000E+0,2.020117E+0,2.055218E-1
3.129000E+0,2.020117E+0,2.130826E-1
3.130000E+0,2.020117E+0,2.213009E-1
3.131000E+0,2.019789E+0,2.295191E-1
3.132000E+0,2.020117E+0,2.393811E-1
3.133000E+0,2.020117E+0,2.499005E-1
3.134000E+0,2.020446E+0,2.607486E-1
3.135000E+0,2.020446E+0,2.706105E-1
3.136000E+0,2.020117E+0,2.811299E-1
3.137000E+0,2.020117E+0,2.909918E-1
3.138000E+0,2.019789E+0,2.998676E-1
3.139000E+0,2.019789E+0,3.057847E-1
3.140000E+0,2.019460E+0,3.077571E-1
3.141000E+0,2.020117E+0,3.015112E-1
3.142000E+0,2.019789E+0,2.857321E-1
3.143000E+0,2.019789E+0,2.548314E-1
3.144000E+0,2.019789E+0,2.045356E-1
3.145000E+0,2.019460E+0,1.322148E-1
3.146000E+0,2.019460E+0,3.293806E-2
3.147000E+0,2.019789E+0,-9.395207E-2
3.148000E+0,2.020117E+0,-2.471407E-1
3.149000E+0,2.019789E+0,-4.272852E-1
3.150000E+0,2.020446E+0,-6.284685E-1
3.151000E+0,2.020117E+0,-8.487182E-1
3.152000E+0,2.019460E+0,-1.081460E+0
3.153000E+0,2.019131E+0,-1.318803E+0
3.154000E+0,2.019131E+0,-1.552202E+0
3.155000E+0,2.019789E+0,-1.771794E+0
3.156000E+0,2.019131E+0,-1.964102E+0
3.157000E+0,2.019131E+0,-2.118934E+0
3.158000E+0,2.019460E+0,-2.224457E+0
3.159000E+0,2.019460E+0,-2.271137E+0
3.160000E+0,2.019789E+0,-2.253714E+0
3.161000E+0,2.020117E+0,-2.169559E+0
3.162000E+0,2.020446E+0,-2.018671E+0
3.163000E+0,2.020446E+0,-1.806969E+0
3.164000E+0,2.020446E+0,-1.543327E+0
3.165000E+0,2.020446E+0,-1.237607E+0
3.166000E+0,2.021104E+0,-9.052599E-1
3.167000E+0,2.020446E+0,-5.607499E-1
3.168000E+0,2.020117E+0,-2.224858E-1
3.169000E+0,2.020117E+0,9.671186E-2
3.170000E+0,2.020117E+0,3.827078E-1
3.171000E+0,2.019789E+0,6.246538E-1
3.172000E+0,2.020117E+0,8.149890E-1
3.173000E+0,2.019789E+0,9.484538E-1
3.174000E+0,2.020117E+0,1.031951E+0
3.175000E+0,2.020117E+0,1.064825E+0
3.176000E+0,2.019789E+0,1.055620E+0
3.177000E+0,2.020446E+0,1.013543E+0
3.178000E+0,2.019789E+0,9.461527E-1
3.179000E+0,2.020117E+0,8.626550E-1
3.180000E+0,2.020117E+0,7.725827E-1
3.181000E+0,2.019789E+0,6.818529E-1
3.182000E+0,2.019789E+0,5.963829E-1
3.183000E+0,2.019789E+0,5.201173E-1
3.184000E+0,2.020117E+0,4.560148E-1
3.185000E+0,2.020117E+0,4.060477E-1
3.186000E+0,2.019789E+0,3.692298E-1
3.187000E+0,2.020446E+0,3.445750E-1
3.188000E+0,2.020446E+0,3.307683E-1
3.189000E+0,2.019789E+0,3.268235E-1
3.190000E+0,2.019789E+0,3.281384E-1
3.191000E+0,2.019789E+0,3.337269E-1
3.192000E+0,2.019789E+0,3.426026E-1
3.193000E+0,2.019789E+0,3.518071E-1
3.194000E+0,2.020117E+0,3.596966E-1
3.195000E+0,2.020446E+0,3.675861E-1
3.196000E+0,2.020117E+0,3.728458E-1
3.197000E+0,2.020117E+0,3.754757E-1
3.198000E+0,2.020117E+0,3.758044E-1
3.199000E+0,2.019789E+0,3.744895E-1
3.200000E+0,2.020117E+0,3.705447E-1
3.201000E+0,2.020446E+0,3.669287E-1
3.202000E+0,2.019460E+0,3.616690E-1
3.203000E+0,2.019789E+0,3.560806E-1
3.204000E+0,2.019131E+0,3.518071E-1
3.205000E+0,2.020446E+0,3.462186E-1
3.206000E+0,2.019789E+0,3.422739E-1
3.207000E+0,2.019789E+0,3.389866E-1
3.208000E+0,2.019789E+0,3.380004E-1
3.209000E+0,2.019131E+0,3.373429E-1
3.210000E+0,2.019460E+0,3.380004E-1
3.211000E+0,2.019789E+0,3.389866E-1
3.212000E+0,2.019131E+0,3.406302E-1
3.213000E+0,2.019789E+0,3.429313E-1
3.214000E+0,2.019789E+0,3.452324E-1
3.215000E+0,2.019460E+0,3.468761E-1
3.216000E+0,2.019460E+0,3.481910E-1
3.217000E+0,2.019789E+0,3.485197E-1
3.218000E+0,2.019460E+0,3.481910E-1
3.219000E+0,2.019789E+0,3.478623E-1
3.220000E+0,2.019460E+0,3.449037E-1
3.221000E+0,2.019460E+0,3.432601E-1
3.222000E+0,2.020117E+0,3.403015E-1
3.223000E+0,2.020446E+0,3.383291E-1
3.224000E+0,2.019789E+0,3.360280E-1
3.225000E+0,2.019789E+0,3.340556E-1
3.226000E+0,2.019131E+0,3.333981E-1
3.227000E+0,2.019131E+0,3.330694E-1
3.228000E+0,2.019460E+0,3.327407E-1
3.229000E+0,2.019789E+0,3.327407E-1
3.230000E+0,2.020446E+0,3.340556E-1
3.231000E+0,2.019789E+0,3.350418E-1
3.232000E+0,2.020117E+0,3.360280E-1
3.233000E+0,2.019789E+0,3.366854E-1
3.234000E+0,2.020446E+0,3.363567E-1
3.235000E+0,2.019131E+0,3.356992E-1
3.236000E+0,2.019789E+0,3.343843E-1
3.237000E+0,2.019131E+0,3.317545E-1
3.238000E+0,2.019789E+0,3.297821E-1
3.239000E+0,2.019131E+0,3.278097E-1
3.240000E+0,2.019789E+0,3.255086E-1
3.241000E+0,2.019131E+0,3.232075E-1
3.242000E+0,2.019131E+0,3.215638E-1
3.243000E+0,2.019131E+0,3.202489E-1
3.244000E+0,2.019460E+0,3.205776E-1
3.245000E+0,2.019131E+0,3.195914E-1
3.246000E+0,2.019131E+0,3.209063E-1
3.247000E+0,2.019460E+0,3.215638E-1
3.248000E+0,2.018802E+0,3.225500E-1
3.249000E+0,2.019460E+0,3.225500E-1
3.250000E+0,2.020446E+0,3.232075E-1
3.251000E+0,2.019460E+0,3.225500E-1
3.252000E+0,2.018802E+0,3.212351E-1
3.253000E+0,2.018802E+0,3.195914E-1
3.254000E+0,2.020117E+0,3.172903E-1
3.255000E+0,2.019131E+0,3.149892E-1
3.256000E+0,2.019460E+0,3.123593E-1
3.257000E+0,2.019131E+0,3.110444E-1
3.258000E+0,2.019460E+0,3.087433E-1
3.259000E+0,2.019131E+0,3.077571E-1
3.260000E+0,2.019131E+0,3.070996E-1
3.261000E+0,2.019131E+0,3.064422E-1
3.262000E+0,2.020117E+0,3.070996E-1
3.263000E+0,2.019789E+0,3.074284E-1
3.264000E+0,2.019460E+0,3.077571E-1
3.265000E+0,2.019460E+0,3.094008E-1
3.266000E+0,2.019789E+0,3.090720E-1
3.267000E+0,2.019131E+0,3.090720E-1
3.268000E+0,2.019460E+0,3.084146E-1
3.269000E+0,2.019131E+0,3.070996E-1
3.270000E+0,2.019460E+0,3.057847E-1
3.271000E+0,2.018802E+0,3.038123E-1
3.272000E+0,2.020117E+0,3.011825E-1
3.273000E+0,2.019789E+0,2.995388E-1
3.274000E+0,2.019460E+0,2.969090E-1
3.275000E+0,2.019789E+0,2.959228E-1
3.276000E+0,2.018474E+0,2.939504E-1
3.277000E+0,2.019460E+0,2.936217E-1
3.278000E+0,2.019460E+0,2.939504E-1
3.279000E+0,2.019131E+0,2.949366E-1
3.280000E+0,2.019460E+0,2.955941E-1
3.281000E+0,2.019460E+0,2.959228E-1
3.282000E+0,2.019789E+0,2.972377E-1
3.283000E+0,2.019789E+0,2.975665E-1
3.284000E+0,2.020117E+0,2.972377E-1
3.285000E+0,2.019789E+0,2.965803E-1
3.286000E+0,2.019460E+0,2.949366E-1
3.287000E+0,2.019460E+0,2.923068E-1
3.288000E+0,2.019789E+0,2.903344E-1
3.289000E+0,2.018802E+0,2.883620E-1
3.290000E+0,2.019131E+0,2.867183E-1
3.291000E+0,2.018802E+0,2.847459E-1
3.292000E+0,2.018145E+0,2.831023E-1
3.293000E+0,2.018474E+0,2.824448E-1
3.294000E+0,2.018474E+0,2.824448E-1
3.295000E+0,2.019460E+0,2.834310E-1
3.296000E+0,2.019789E+0,2.834310E-1
3.297000E+0,2.018802E+0,2.847459E-1
3.298000E+0,2.019131E+0,2.857321E-1
3.299000E+0,2.019131E+0,2.863896E-1
3.300000E+0,2.019789E+0,2.867183E-1
3.301000E+0,2.019131E+0,2.863896E-1
3.302000E+0,2.018802E+0,2.857321E-1
3.303000E+0,2.019131E+0,2.844172E-1
3.304000E+0,2.019131E+0,2.827736E-1
3.305000E+0,2.018802E+0,2.804724E-1
3.306000E+0,2.019131E+0,2.781713E-1
3.307000E+0,2.018802E+0,2.758702E-1
3.308000E+0,2.018802E+0,2.745553E-1
3.309000E+0,2.018474E+0,2.729116E-1
3.310000E+0,2.018474E+0,2.729116E-1
3.311000E+0,2.019131E+0,2.745553E-1
3.312000E+0,2.018802E+0,2.735691E-1
3.313000E+0,2.018802E+0,2.752127E-1
3.314000E+0,2.018802E+0,2.758702E-1
