Time (s), AI0 (V) 
0.000000E+0,1.782445E+0
1.000000E-3,1.782116E+0
2.000000E-3,1.782445E+0
3.000000E-3,1.782773E+0
4.000000E-3,1.781787E+0
5.000000E-3,1.781787E+0
6.000000E-3,1.782116E+0
7.000000E-3,1.782116E+0
8.000000E-3,1.781458E+0
9.000000E-3,1.781458E+0
1.000000E-2,1.781130E+0
1.100000E-2,1.781130E+0
1.200000E-2,1.780801E+0
1.300000E-2,1.780801E+0
1.400000E-2,1.780472E+0
1.500000E-2,1.780801E+0
1.600000E-2,1.780801E+0
1.700000E-2,1.780144E+0
1.800000E-2,1.780472E+0
1.900000E-2,1.778829E+0
2.000000E-2,1.780144E+0
2.100000E-2,1.779815E+0
2.200000E-2,1.779815E+0
2.300000E-2,1.779157E+0
2.400000E-2,1.779486E+0
2.500000E-2,1.779157E+0
2.600000E-2,1.779157E+0
2.700000E-2,1.778500E+0
2.800000E-2,1.778500E+0
2.900000E-2,1.778171E+0
3.000000E-2,1.778500E+0
3.100000E-2,1.777842E+0
3.200000E-2,1.778171E+0
3.300000E-2,1.777842E+0
3.400000E-2,1.777514E+0
3.500000E-2,1.777514E+0
3.600000E-2,1.777185E+0
3.700000E-2,1.776199E+0
3.800000E-2,1.776199E+0
3.900000E-2,1.776856E+0
4.000000E-2,1.777185E+0
4.100000E-2,1.775541E+0
4.200000E-2,1.775870E+0
4.300000E-2,1.775541E+0
4.400000E-2,1.775213E+0
4.500000E-2,1.775541E+0
4.600000E-2,1.775213E+0
4.700000E-2,1.774555E+0
4.800000E-2,1.774884E+0
4.900000E-2,1.774226E+0
5.000000E-2,1.774555E+0
5.100000E-2,1.774226E+0
5.200000E-2,1.774226E+0
5.300000E-2,1.774226E+0
5.400000E-2,1.773569E+0
5.500000E-2,1.773240E+0
5.600000E-2,1.773240E+0
5.700000E-2,1.772911E+0
5.800000E-2,1.772583E+0
5.900000E-2,1.772254E+0
6.000000E-2,1.772254E+0
6.100000E-2,1.771597E+0
6.200000E-2,1.771597E+0
6.300000E-2,1.771268E+0
6.400000E-2,1.771597E+0
6.500000E-2,1.770939E+0
6.600000E-2,1.770939E+0
6.700000E-2,1.770610E+0
6.800000E-2,1.770610E+0
6.900000E-2,1.769624E+0
7.000000E-2,1.769295E+0
7.100000E-2,1.768967E+0
7.200000E-2,1.768967E+0
7.300000E-2,1.768638E+0
7.400000E-2,1.768967E+0
7.500000E-2,1.768638E+0
7.600000E-2,1.767981E+0
7.700000E-2,1.767652E+0
7.800000E-2,1.767981E+0
7.900000E-2,1.766994E+0
8.000000E-2,1.766994E+0
8.100000E-2,1.766666E+0
8.200000E-2,1.766337E+0
8.300000E-2,1.766008E+0
8.400000E-2,1.765679E+0
8.500000E-2,1.765679E+0
8.600000E-2,1.764693E+0
8.700000E-2,1.765351E+0
8.800000E-2,1.765351E+0
8.900000E-2,1.764693E+0
9.000000E-2,1.764036E+0
9.100000E-2,1.765022E+0
9.200000E-2,1.763707E+0
9.300000E-2,1.763378E+0
9.400000E-2,1.763050E+0
9.500000E-2,1.763050E+0
9.600000E-2,1.762721E+0
9.700000E-2,1.763050E+0
9.800000E-2,1.762392E+0
9.900000E-2,1.762063E+0
1.000000E-1,1.761406E+0
1.010000E-1,1.761406E+0
1.020000E-1,1.761406E+0
1.030000E-1,1.761077E+0
1.040000E-1,1.759762E+0
1.050000E-1,1.759762E+0
1.060000E-1,1.759433E+0
1.070000E-1,1.759105E+0
1.080000E-1,1.758447E+0
1.090000E-1,1.758447E+0
1.100000E-1,1.758776E+0
1.110000E-1,1.757461E+0
1.120000E-1,1.757132E+0
1.130000E-1,1.757132E+0
1.140000E-1,1.757132E+0
1.150000E-1,1.756475E+0
1.160000E-1,1.755489E+0
1.170000E-1,1.756146E+0
1.180000E-1,1.755817E+0
1.190000E-1,1.755160E+0
1.200000E-1,1.755489E+0
1.210000E-1,1.754503E+0
1.220000E-1,1.755160E+0
1.230000E-1,1.754503E+0
1.240000E-1,1.754174E+0
1.250000E-1,1.753845E+0
1.260000E-1,1.752859E+0
1.270000E-1,1.753845E+0
1.280000E-1,1.752530E+0
1.290000E-1,1.752859E+0
1.300000E-1,1.752530E+0
1.310000E-1,1.752201E+0
1.320000E-1,1.750886E+0
1.330000E-1,1.750886E+0
1.340000E-1,1.751215E+0
1.350000E-1,1.750886E+0
1.360000E-1,1.750229E+0
1.370000E-1,1.750229E+0
1.380000E-1,1.749243E+0
1.390000E-1,1.749243E+0
1.400000E-1,1.748585E+0
1.410000E-1,1.748585E+0
1.420000E-1,1.747928E+0
1.430000E-1,1.748257E+0
1.440000E-1,1.746942E+0
1.450000E-1,1.747599E+0
1.460000E-1,1.746942E+0
1.470000E-1,1.746284E+0
1.480000E-1,1.745956E+0
1.490000E-1,1.745298E+0
1.500000E-1,1.745627E+0
1.510000E-1,1.744969E+0
1.520000E-1,1.744969E+0
1.530000E-1,1.744641E+0
1.540000E-1,1.744312E+0
1.550000E-1,1.743654E+0
1.560000E-1,1.742997E+0
1.570000E-1,1.742997E+0
1.580000E-1,1.742668E+0
1.590000E-1,1.742011E+0
1.600000E-1,1.741682E+0
1.610000E-1,1.741682E+0
1.620000E-1,1.741353E+0
1.630000E-1,1.741025E+0
1.640000E-1,1.741025E+0
1.650000E-1,1.740038E+0
1.660000E-1,1.739710E+0
1.670000E-1,1.738723E+0
1.680000E-1,1.740038E+0
1.690000E-1,1.739381E+0
1.700000E-1,1.738395E+0
1.710000E-1,1.738066E+0
1.720000E-1,1.738395E+0
1.730000E-1,1.737409E+0
1.740000E-1,1.737409E+0
1.750000E-1,1.736751E+0
1.760000E-1,1.736422E+0
1.770000E-1,1.736094E+0
1.780000E-1,1.735765E+0
1.790000E-1,1.735765E+0
1.800000E-1,1.735107E+0
1.810000E-1,1.735107E+0
1.820000E-1,1.735107E+0
1.830000E-1,1.735436E+0
1.840000E-1,1.734121E+0
1.850000E-1,1.733464E+0
1.860000E-1,1.733464E+0
1.870000E-1,1.733464E+0
1.880000E-1,1.732806E+0
1.890000E-1,1.732806E+0
1.900000E-1,1.731491E+0
1.910000E-1,1.731820E+0
1.920000E-1,1.731163E+0
1.930000E-1,1.730834E+0
1.940000E-1,1.731163E+0
1.950000E-1,1.730834E+0
1.960000E-1,1.730505E+0
1.970000E-1,1.729848E+0
1.980000E-1,1.729519E+0
1.990000E-1,1.729848E+0
2.000000E-1,1.729190E+0
2.010000E-1,1.728861E+0
2.020000E-1,1.728533E+0
2.030000E-1,1.728533E+0
2.040000E-1,1.727875E+0
2.050000E-1,1.727547E+0
2.060000E-1,1.727218E+0
2.070000E-1,1.726889E+0
2.080000E-1,1.726889E+0
2.090000E-1,1.726560E+0
2.100000E-1,1.726560E+0
2.110000E-1,1.724917E+0
2.120000E-1,1.725903E+0
2.130000E-1,1.725574E+0
2.140000E-1,1.725245E+0
2.150000E-1,1.725245E+0
2.160000E-1,1.724259E+0
2.170000E-1,1.723602E+0
2.180000E-1,1.723931E+0
2.190000E-1,1.723931E+0
2.200000E-1,1.723931E+0
2.210000E-1,1.722944E+0
2.220000E-1,1.723273E+0
2.230000E-1,1.722616E+0
2.240000E-1,1.721958E+0
2.250000E-1,1.722287E+0
2.260000E-1,1.721629E+0
2.270000E-1,1.721958E+0
2.280000E-1,1.721958E+0
2.290000E-1,1.720314E+0
2.300000E-1,1.721301E+0
2.310000E-1,1.720643E+0
2.320000E-1,1.720643E+0
2.330000E-1,1.720643E+0
2.340000E-1,1.720314E+0
2.350000E-1,1.719986E+0
2.360000E-1,1.719657E+0
2.370000E-1,1.719657E+0
2.380000E-1,1.719328E+0
2.390000E-1,1.719000E+0
2.400000E-1,1.718342E+0
2.410000E-1,1.718342E+0
2.420000E-1,1.718013E+0
2.430000E-1,1.717685E+0
2.440000E-1,1.718671E+0
2.450000E-1,1.718013E+0
2.460000E-1,1.717356E+0
2.470000E-1,1.717356E+0
2.480000E-1,1.717356E+0
2.490000E-1,1.716698E+0
2.500000E-1,1.716370E+0
2.510000E-1,1.716370E+0
2.520000E-1,1.715712E+0
2.530000E-1,1.715712E+0
2.540000E-1,1.715712E+0
2.550000E-1,1.715384E+0
2.560000E-1,1.715384E+0
2.570000E-1,1.714726E+0
2.580000E-1,1.715055E+0
2.590000E-1,1.714397E+0
2.600000E-1,1.714397E+0
2.610000E-1,1.714069E+0
2.620000E-1,1.714069E+0
2.630000E-1,1.713740E+0
2.640000E-1,1.713411E+0
2.650000E-1,1.714069E+0
2.660000E-1,1.713740E+0
2.670000E-1,1.713411E+0
2.680000E-1,1.712754E+0
2.690000E-1,1.712754E+0
2.700000E-1,1.712754E+0
2.710000E-1,1.712096E+0
2.720000E-1,1.712754E+0
2.730000E-1,1.712425E+0
2.740000E-1,1.712096E+0
2.750000E-1,1.712096E+0
2.760000E-1,1.711767E+0
2.770000E-1,1.711110E+0
2.780000E-1,1.712096E+0
2.790000E-1,1.712096E+0
2.800000E-1,1.712096E+0
2.810000E-1,1.711110E+0
2.820000E-1,1.711439E+0
2.830000E-1,1.711767E+0
2.840000E-1,1.711439E+0
2.850000E-1,1.711110E+0
2.860000E-1,1.711110E+0
2.870000E-1,1.710453E+0
2.880000E-1,1.710453E+0
2.890000E-1,1.710453E+0
2.900000E-1,1.710124E+0
2.910000E-1,1.710124E+0
2.920000E-1,1.710124E+0
2.930000E-1,1.709138E+0
2.940000E-1,1.709795E+0
2.950000E-1,1.709795E+0
2.960000E-1,1.710781E+0
2.970000E-1,1.709795E+0
2.980000E-1,1.710124E+0
2.990000E-1,1.709466E+0
3.000000E-1,1.708809E+0
3.010000E-1,1.709795E+0
3.020000E-1,1.709795E+0
3.030000E-1,1.709466E+0
3.040000E-1,1.709138E+0
3.050000E-1,1.709138E+0
3.060000E-1,1.709138E+0
3.070000E-1,1.708480E+0
3.080000E-1,1.709138E+0
3.090000E-1,1.708809E+0
3.100000E-1,1.708809E+0
3.110000E-1,1.708809E+0
3.120000E-1,1.708480E+0
3.130000E-1,1.708809E+0
3.140000E-1,1.708151E+0
3.150000E-1,1.709138E+0
3.160000E-1,1.707823E+0
3.170000E-1,1.708151E+0
3.180000E-1,1.708480E+0
3.190000E-1,1.708480E+0
3.200000E-1,1.708151E+0
3.210000E-1,1.707823E+0
3.220000E-1,1.708151E+0
3.230000E-1,1.707823E+0
3.240000E-1,1.708151E+0
3.250000E-1,1.707823E+0
3.260000E-1,1.707823E+0
3.270000E-1,1.708151E+0
3.280000E-1,1.708151E+0
3.290000E-1,1.707823E+0
3.300000E-1,1.707494E+0
3.310000E-1,1.708151E+0
3.320000E-1,1.708151E+0
3.330000E-1,1.707823E+0
3.340000E-1,1.707494E+0
3.350000E-1,1.708151E+0
3.360000E-1,1.706836E+0
3.370000E-1,1.708480E+0
3.380000E-1,1.708480E+0
3.390000E-1,1.707823E+0
3.400000E-1,1.708480E+0
3.410000E-1,1.707823E+0
3.420000E-1,1.708480E+0
3.430000E-1,1.707823E+0
3.440000E-1,1.708151E+0
3.450000E-1,1.708151E+0
3.460000E-1,1.708809E+0
3.470000E-1,1.708151E+0
3.480000E-1,1.708151E+0
3.490000E-1,1.708151E+0
3.500000E-1,1.708809E+0
3.510000E-1,1.708151E+0
3.520000E-1,1.709138E+0
3.530000E-1,1.708480E+0
3.540000E-1,1.708151E+0
3.550000E-1,1.707494E+0
3.560000E-1,1.708151E+0
3.570000E-1,1.708151E+0
3.580000E-1,1.708480E+0
3.590000E-1,1.708151E+0
3.600000E-1,1.708151E+0
3.610000E-1,1.707165E+0
3.620000E-1,1.707823E+0
3.630000E-1,1.708151E+0
3.640000E-1,1.708480E+0
3.650000E-1,1.708809E+0
3.660000E-1,1.708480E+0
3.670000E-1,1.709138E+0
3.680000E-1,1.708809E+0
3.690000E-1,1.708809E+0
3.700000E-1,1.708809E+0
3.710000E-1,1.708480E+0
3.720000E-1,1.708809E+0
3.730000E-1,1.708151E+0
3.740000E-1,1.708809E+0
3.750000E-1,1.708809E+0
3.760000E-1,1.708809E+0
3.770000E-1,1.708809E+0
3.780000E-1,1.708480E+0
3.790000E-1,1.707823E+0
3.800000E-1,1.709138E+0
3.810000E-1,1.709466E+0
3.820000E-1,1.709795E+0
3.830000E-1,1.709795E+0
3.840000E-1,1.709138E+0
3.850000E-1,1.709138E+0
3.860000E-1,1.709466E+0
3.870000E-1,1.709138E+0
3.880000E-1,1.708809E+0
3.890000E-1,1.709138E+0
3.900000E-1,1.709466E+0
3.910000E-1,1.709138E+0
3.920000E-1,1.709138E+0
3.930000E-1,1.709466E+0
3.940000E-1,1.709138E+0
3.950000E-1,1.709466E+0
3.960000E-1,1.709795E+0
3.970000E-1,1.708809E+0
3.980000E-1,1.709138E+0
3.990000E-1,1.709795E+0
4.000000E-1,1.709138E+0
4.010000E-1,1.709795E+0
4.020000E-1,1.709795E+0
4.030000E-1,1.709466E+0
4.040000E-1,1.709466E+0
4.050000E-1,1.709795E+0
4.060000E-1,1.709138E+0
4.070000E-1,1.709138E+0
4.080000E-1,1.709138E+0
4.090000E-1,1.709138E+0
4.100000E-1,1.709138E+0
4.110000E-1,1.709795E+0
4.120000E-1,1.709466E+0
4.130000E-1,1.709466E+0
4.140000E-1,1.709138E+0
4.150000E-1,1.709466E+0
4.160000E-1,1.708809E+0
4.170000E-1,1.709466E+0
4.180000E-1,1.709138E+0
4.190000E-1,1.709138E+0
4.200000E-1,1.708809E+0
4.210000E-1,1.709138E+0
4.220000E-1,1.709138E+0
4.230000E-1,1.708809E+0
4.240000E-1,1.708480E+0
4.250000E-1,1.708809E+0
4.260000E-1,1.708809E+0
4.270000E-1,1.708809E+0
4.280000E-1,1.708151E+0
4.290000E-1,1.708809E+0
4.300000E-1,1.708151E+0
4.310000E-1,1.708151E+0
4.320000E-1,1.707823E+0
4.330000E-1,1.708151E+0
4.340000E-1,1.708151E+0
4.350000E-1,1.708151E+0
4.360000E-1,1.708151E+0
4.370000E-1,1.707494E+0
4.380000E-1,1.707165E+0
4.390000E-1,1.707494E+0
4.400000E-1,1.708151E+0
4.410000E-1,1.707494E+0
4.420000E-1,1.707494E+0
4.430000E-1,1.706508E+0
4.440000E-1,1.706836E+0
4.450000E-1,1.705850E+0
4.460000E-1,1.706179E+0
4.470000E-1,1.706836E+0
4.480000E-1,1.705850E+0
4.490000E-1,1.705193E+0
4.500000E-1,1.705850E+0
4.510000E-1,1.704864E+0
4.520000E-1,1.704535E+0
4.530000E-1,1.704864E+0
4.540000E-1,1.704864E+0
4.550000E-1,1.704207E+0
4.560000E-1,1.703878E+0
4.570000E-1,1.703549E+0
4.580000E-1,1.703878E+0
4.590000E-1,1.703549E+0
4.600000E-1,1.702563E+0
4.610000E-1,1.702234E+0
4.620000E-1,1.702234E+0
4.630000E-1,1.702234E+0
4.640000E-1,1.701577E+0
4.650000E-1,1.701577E+0
4.660000E-1,1.700591E+0
4.670000E-1,1.700919E+0
4.680000E-1,1.700262E+0
4.690000E-1,1.700591E+0
4.700000E-1,1.699604E+0
4.710000E-1,1.699276E+0
4.720000E-1,1.698947E+0
4.730000E-1,1.698618E+0
4.740000E-1,1.697632E+0
4.750000E-1,1.697303E+0
4.760000E-1,1.696646E+0
4.770000E-1,1.695988E+0
4.780000E-1,1.695660E+0
4.790000E-1,1.695002E+0
4.800000E-1,1.695660E+0
4.810000E-1,1.694673E+0
4.820000E-1,1.694345E+0
4.830000E-1,1.693687E+0
4.840000E-1,1.693687E+0
4.850000E-1,1.692372E+0
4.860000E-1,1.692701E+0
4.870000E-1,1.691715E+0
4.880000E-1,1.691057E+0
4.890000E-1,1.690729E+0
4.900000E-1,1.689414E+0
4.910000E-1,1.689414E+0
4.920000E-1,1.688428E+0
4.930000E-1,1.687770E+0
4.940000E-1,1.687441E+0
4.950000E-1,1.686784E+0
4.960000E-1,1.686784E+0
4.970000E-1,1.685798E+0
4.980000E-1,1.685140E+0
4.990000E-1,1.684812E+0
5.000000E-1,1.684483E+0
5.010000E-1,1.683168E+0
5.020000E-1,1.682182E+0
5.030000E-1,1.681853E+0
5.040000E-1,1.680538E+0
5.050000E-1,1.679881E+0
5.060000E-1,1.679223E+0
5.070000E-1,1.678894E+0
5.080000E-1,1.677579E+0
5.090000E-1,1.677579E+0
5.100000E-1,1.676593E+0
5.110000E-1,1.676264E+0
5.120000E-1,1.675278E+0
5.130000E-1,1.674621E+0
5.140000E-1,1.673306E+0
5.150000E-1,1.672648E+0
5.160000E-1,1.671662E+0
5.170000E-1,1.671334E+0
5.180000E-1,1.670347E+0
5.190000E-1,1.669690E+0
5.200000E-1,1.668375E+0
5.210000E-1,1.668046E+0
5.220000E-1,1.666731E+0
5.230000E-1,1.665088E+0
5.240000E-1,1.664430E+0
5.250000E-1,1.664430E+0
5.260000E-1,1.663115E+0
5.270000E-1,1.662129E+0
5.280000E-1,1.661472E+0
5.290000E-1,1.660485E+0
5.300000E-1,1.659499E+0
5.310000E-1,1.658842E+0
5.320000E-1,1.657527E+0
5.330000E-1,1.656869E+0
5.340000E-1,1.655883E+0
5.350000E-1,1.655554E+0
5.360000E-1,1.654240E+0
5.370000E-1,1.652596E+0
5.380000E-1,1.651938E+0
5.390000E-1,1.648980E+0
5.400000E-1,1.649966E+0
5.410000E-1,1.648651E+0
5.420000E-1,1.648322E+0
5.430000E-1,1.647007E+0
5.440000E-1,1.645692E+0
5.450000E-1,1.644378E+0
5.460000E-1,1.644378E+0
5.470000E-1,1.642734E+0
5.480000E-1,1.641419E+0
5.490000E-1,1.640762E+0
5.500000E-1,1.640104E+0
5.510000E-1,1.638789E+0
5.520000E-1,1.638132E+0
5.530000E-1,1.636488E+0
5.540000E-1,1.636159E+0
5.550000E-1,1.634516E+0
5.560000E-1,1.633858E+0
5.570000E-1,1.632543E+0
5.580000E-1,1.630571E+0
5.590000E-1,1.630242E+0
5.600000E-1,1.628927E+0
5.610000E-1,1.627612E+0
5.620000E-1,1.627284E+0
5.630000E-1,1.626297E+0
5.640000E-1,1.624982E+0
5.650000E-1,1.623996E+0
5.660000E-1,1.622353E+0
5.670000E-1,1.621038E+0
5.680000E-1,1.620380E+0
5.690000E-1,1.619394E+0
5.700000E-1,1.617422E+0
5.710000E-1,1.616764E+0
5.720000E-1,1.615120E+0
5.730000E-1,1.614134E+0
5.740000E-1,1.613148E+0
5.750000E-1,1.612491E+0
5.760000E-1,1.610518E+0
5.770000E-1,1.609861E+0
5.780000E-1,1.608546E+0
5.790000E-1,1.607888E+0
5.800000E-1,1.606245E+0
5.810000E-1,1.606245E+0
5.820000E-1,1.604930E+0
5.830000E-1,1.603615E+0
5.840000E-1,1.601643E+0
5.850000E-1,1.600656E+0
5.860000E-1,1.599341E+0
5.870000E-1,1.598684E+0
5.880000E-1,1.597698E+0
5.890000E-1,1.596712E+0
5.900000E-1,1.595397E+0
5.910000E-1,1.594082E+0
5.920000E-1,1.592767E+0
5.930000E-1,1.591781E+0
5.940000E-1,1.590137E+0
5.950000E-1,1.590137E+0
5.960000E-1,1.588493E+0
5.970000E-1,1.587178E+0
5.980000E-1,1.585863E+0
5.990000E-1,1.585535E+0
6.000000E-1,1.583562E+0
6.010000E-1,1.582905E+0
6.020000E-1,1.581919E+0
6.030000E-1,1.580604E+0
6.040000E-1,1.579289E+0
6.050000E-1,1.578631E+0
6.060000E-1,1.576659E+0
6.070000E-1,1.576001E+0
6.080000E-1,1.575015E+0
6.090000E-1,1.573700E+0
6.100000E-1,1.572714E+0
6.110000E-1,1.571728E+0
6.120000E-1,1.570413E+0
6.130000E-1,1.569427E+0
6.140000E-1,1.568441E+0
6.150000E-1,1.566797E+0
6.160000E-1,1.565482E+0
6.170000E-1,1.564825E+0
6.180000E-1,1.563838E+0
6.190000E-1,1.562852E+0
6.200000E-1,1.561537E+0
6.210000E-1,1.560551E+0
6.220000E-1,1.559565E+0
6.230000E-1,1.558907E+0
6.240000E-1,1.557264E+0
6.250000E-1,1.555620E+0
6.260000E-1,1.555620E+0
6.270000E-1,1.554634E+0
6.280000E-1,1.552990E+0
6.290000E-1,1.552990E+0
6.300000E-1,1.551347E+0
6.310000E-1,1.550689E+0
6.320000E-1,1.549374E+0
6.330000E-1,1.548717E+0
6.340000E-1,1.547073E+0
6.350000E-1,1.546416E+0
6.360000E-1,1.545429E+0
6.370000E-1,1.544443E+0
6.380000E-1,1.542800E+0
6.390000E-1,1.541813E+0
6.400000E-1,1.540827E+0
6.410000E-1,1.540499E+0
6.420000E-1,1.538526E+0
6.430000E-1,1.538197E+0
6.440000E-1,1.535568E+0
6.450000E-1,1.536225E+0
6.460000E-1,1.535239E+0
6.470000E-1,1.533595E+0
6.480000E-1,1.533595E+0
6.490000E-1,1.532280E+0
6.500000E-1,1.529979E+0
6.510000E-1,1.530637E+0
6.520000E-1,1.529650E+0
6.530000E-1,1.528993E+0
6.540000E-1,1.527678E+0
6.550000E-1,1.526363E+0
6.560000E-1,1.526034E+0
6.570000E-1,1.524062E+0
6.580000E-1,1.524391E+0
6.590000E-1,1.523076E+0
6.600000E-1,1.522090E+0
6.610000E-1,1.521103E+0
6.620000E-1,1.520446E+0
6.630000E-1,1.519788E+0
6.640000E-1,1.518474E+0
6.650000E-1,1.517816E+0
6.660000E-1,1.517159E+0
6.670000E-1,1.517159E+0
6.680000E-1,1.514857E+0
6.690000E-1,1.514200E+0
6.700000E-1,1.512885E+0
6.710000E-1,1.512556E+0
6.720000E-1,1.511241E+0
6.730000E-1,1.511241E+0
6.740000E-1,1.509598E+0
6.750000E-1,1.509269E+0
6.760000E-1,1.507954E+0
6.770000E-1,1.507625E+0
6.780000E-1,1.506310E+0
6.790000E-1,1.505653E+0
6.800000E-1,1.504996E+0
6.810000E-1,1.504009E+0
6.820000E-1,1.503352E+0
6.830000E-1,1.502694E+0
6.840000E-1,1.502037E+0
6.850000E-1,1.501380E+0
6.860000E-1,1.500393E+0
6.870000E-1,1.499407E+0
6.880000E-1,1.498092E+0
6.890000E-1,1.497763E+0
6.900000E-1,1.497763E+0
6.910000E-1,1.496449E+0
6.920000E-1,1.496449E+0
6.930000E-1,1.494147E+0
6.940000E-1,1.494147E+0
6.950000E-1,1.493161E+0
6.960000E-1,1.492504E+0
6.970000E-1,1.491846E+0
6.980000E-1,1.491189E+0
6.990000E-1,1.490531E+0
7.000000E-1,1.489545E+0
7.010000E-1,1.488888E+0
7.020000E-1,1.488559E+0
7.030000E-1,1.487573E+0
7.040000E-1,1.487244E+0
7.050000E-1,1.485600E+0
7.060000E-1,1.484943E+0
7.070000E-1,1.483957E+0
7.080000E-1,1.483957E+0
7.090000E-1,1.483299E+0
7.100000E-1,1.481656E+0
7.110000E-1,1.481656E+0
7.120000E-1,1.480998E+0
7.130000E-1,1.480341E+0
7.140000E-1,1.480012E+0
7.150000E-1,1.479026E+0
7.160000E-1,1.478697E+0
7.170000E-1,1.478040E+0
7.180000E-1,1.477053E+0
7.190000E-1,1.477382E+0
7.200000E-1,1.476067E+0
7.210000E-1,1.474424E+0
7.220000E-1,1.474095E+0
7.230000E-1,1.474095E+0
7.240000E-1,1.473437E+0
7.250000E-1,1.472780E+0
7.260000E-1,1.471794E+0
7.270000E-1,1.471136E+0
7.280000E-1,1.470808E+0
7.290000E-1,1.469821E+0
7.300000E-1,1.469164E+0
7.310000E-1,1.468835E+0
7.320000E-1,1.468506E+0
7.330000E-1,1.468178E+0
7.340000E-1,1.466863E+0
7.350000E-1,1.466863E+0
7.360000E-1,1.466205E+0
7.370000E-1,1.465548E+0
7.380000E-1,1.464890E+0
7.390000E-1,1.464233E+0
7.400000E-1,1.463575E+0
7.410000E-1,1.463247E+0
7.420000E-1,1.462918E+0
7.430000E-1,1.462589E+0
7.440000E-1,1.461274E+0
7.450000E-1,1.460617E+0
7.460000E-1,1.460288E+0
7.470000E-1,1.459631E+0
7.480000E-1,1.458973E+0
7.490000E-1,1.458973E+0
7.500000E-1,1.457987E+0
7.510000E-1,1.458644E+0
7.520000E-1,1.457330E+0
7.530000E-1,1.457330E+0
7.540000E-1,1.456343E+0
7.550000E-1,1.455686E+0
7.560000E-1,1.456015E+0
7.570000E-1,1.454371E+0
7.580000E-1,1.454042E+0
7.590000E-1,1.453056E+0
7.600000E-1,1.452727E+0
7.610000E-1,1.452727E+0
7.620000E-1,1.451741E+0
7.630000E-1,1.452070E+0
7.640000E-1,1.451084E+0
7.650000E-1,1.450755E+0
7.660000E-1,1.450426E+0
7.670000E-1,1.449769E+0
7.680000E-1,1.449440E+0
7.690000E-1,1.449111E+0
7.700000E-1,1.448454E+0
7.710000E-1,1.447796E+0
7.720000E-1,1.447468E+0
7.730000E-1,1.446481E+0
7.740000E-1,1.445824E+0
7.750000E-1,1.446153E+0
7.760000E-1,1.445495E+0
7.770000E-1,1.444838E+0
7.780000E-1,1.444838E+0
7.790000E-1,1.444509E+0
7.800000E-1,1.443194E+0
7.810000E-1,1.442865E+0
7.820000E-1,1.443523E+0
7.830000E-1,1.442537E+0
7.840000E-1,1.441879E+0
7.850000E-1,1.441879E+0
7.860000E-1,1.441222E+0
7.870000E-1,1.440564E+0
7.880000E-1,1.440236E+0
7.890000E-1,1.439578E+0
7.900000E-1,1.439578E+0
7.910000E-1,1.439249E+0
7.920000E-1,1.438921E+0
7.930000E-1,1.438263E+0
7.940000E-1,1.437606E+0
7.950000E-1,1.437934E+0
7.960000E-1,1.436619E+0
7.970000E-1,1.436619E+0
7.980000E-1,1.436291E+0
7.990000E-1,1.436291E+0
8.000000E-1,1.435962E+0
8.010000E-1,1.435633E+0
8.020000E-1,1.435305E+0
8.030000E-1,1.434976E+0
8.040000E-1,1.434318E+0
8.050000E-1,1.434976E+0
8.060000E-1,1.434318E+0
8.070000E-1,1.433332E+0
8.080000E-1,1.432346E+0
8.090000E-1,1.432017E+0
8.100000E-1,1.432017E+0
8.110000E-1,1.431360E+0
8.120000E-1,1.431689E+0
8.130000E-1,1.430702E+0
8.140000E-1,1.431031E+0
8.150000E-1,1.430702E+0
8.160000E-1,1.430374E+0
8.170000E-1,1.430045E+0
8.180000E-1,1.429059E+0
8.190000E-1,1.429387E+0
8.200000E-1,1.428730E+0
8.210000E-1,1.429059E+0
8.220000E-1,1.428730E+0
8.230000E-1,1.427744E+0
8.240000E-1,1.427744E+0
8.250000E-1,1.427415E+0
8.260000E-1,1.427415E+0
8.270000E-1,1.426758E+0
8.280000E-1,1.426429E+0
8.290000E-1,1.426758E+0
8.300000E-1,1.426100E+0
8.310000E-1,1.426100E+0
8.320000E-1,1.426100E+0
8.330000E-1,1.425443E+0
8.340000E-1,1.425443E+0
8.350000E-1,1.425114E+0
8.360000E-1,1.424456E+0
8.370000E-1,1.424456E+0
8.380000E-1,1.424128E+0
8.390000E-1,1.423141E+0
8.400000E-1,1.424128E+0
8.410000E-1,1.423141E+0
8.420000E-1,1.423141E+0
8.430000E-1,1.422813E+0
8.440000E-1,1.422484E+0
8.450000E-1,1.422484E+0
8.460000E-1,1.422155E+0
8.470000E-1,1.422484E+0
8.480000E-1,1.422155E+0
8.490000E-1,1.421827E+0
8.500000E-1,1.421498E+0
8.510000E-1,1.421169E+0
8.520000E-1,1.420840E+0
8.530000E-1,1.421169E+0
8.540000E-1,1.420840E+0
8.550000E-1,1.420512E+0
8.560000E-1,1.420512E+0
8.570000E-1,1.420512E+0
8.580000E-1,1.420512E+0
8.590000E-1,1.420512E+0
8.600000E-1,1.419525E+0
8.610000E-1,1.419197E+0
8.620000E-1,1.419525E+0
8.630000E-1,1.418868E+0
8.640000E-1,1.418868E+0
8.650000E-1,1.418868E+0
8.660000E-1,1.418539E+0
8.670000E-1,1.418211E+0
8.680000E-1,1.418539E+0
8.690000E-1,1.418211E+0
8.700000E-1,1.418211E+0
8.710000E-1,1.418211E+0
8.720000E-1,1.418211E+0
8.730000E-1,1.418211E+0
8.740000E-1,1.417553E+0
8.750000E-1,1.417553E+0
8.760000E-1,1.417224E+0
8.770000E-1,1.417882E+0
8.780000E-1,1.417553E+0
8.790000E-1,1.417553E+0
8.800000E-1,1.417224E+0
8.810000E-1,1.417224E+0
8.820000E-1,1.417553E+0
8.830000E-1,1.416567E+0
8.840000E-1,1.416896E+0
8.850000E-1,1.416567E+0
8.860000E-1,1.417224E+0
8.870000E-1,1.416567E+0
8.880000E-1,1.416567E+0
8.890000E-1,1.416238E+0
8.900000E-1,1.416567E+0
8.910000E-1,1.416567E+0
8.920000E-1,1.416238E+0
8.930000E-1,1.416238E+0
8.940000E-1,1.416238E+0
8.950000E-1,1.416238E+0
8.960000E-1,1.415909E+0
8.970000E-1,1.416567E+0
8.980000E-1,1.416896E+0
8.990000E-1,1.416238E+0
9.000000E-1,1.416567E+0
9.010000E-1,1.416567E+0
9.020000E-1,1.416567E+0
9.030000E-1,1.415909E+0
9.040000E-1,1.416238E+0
9.050000E-1,1.415909E+0
9.060000E-1,1.416238E+0
9.070000E-1,1.416238E+0
9.080000E-1,1.415909E+0
9.090000E-1,1.416238E+0
9.100000E-1,1.416238E+0
9.110000E-1,1.415909E+0
9.120000E-1,1.416896E+0
9.130000E-1,1.416238E+0
9.140000E-1,1.416896E+0
9.150000E-1,1.416896E+0
9.160000E-1,1.416238E+0
9.170000E-1,1.416567E+0
9.180000E-1,1.416567E+0
9.190000E-1,1.417224E+0
9.200000E-1,1.416567E+0
9.210000E-1,1.417553E+0
9.220000E-1,1.416567E+0
9.230000E-1,1.416896E+0
9.240000E-1,1.417224E+0
9.250000E-1,1.416896E+0
9.260000E-1,1.416896E+0
9.270000E-1,1.416567E+0
9.280000E-1,1.416567E+0
9.290000E-1,1.416896E+0
9.300000E-1,1.416896E+0
9.310000E-1,1.416896E+0
9.320000E-1,1.417553E+0
9.330000E-1,1.417553E+0
9.340000E-1,1.417553E+0
9.350000E-1,1.417553E+0
9.360000E-1,1.417553E+0
9.370000E-1,1.417224E+0
9.380000E-1,1.417224E+0
9.390000E-1,1.417553E+0
9.400000E-1,1.417882E+0
9.410000E-1,1.418211E+0
9.420000E-1,1.418211E+0
9.430000E-1,1.418211E+0
9.440000E-1,1.417882E+0
9.450000E-1,1.418211E+0
9.460000E-1,1.419197E+0
9.470000E-1,1.418868E+0
9.480000E-1,1.419525E+0
9.490000E-1,1.419525E+0
9.500000E-1,1.419525E+0
9.510000E-1,1.419525E+0
9.520000E-1,1.419197E+0
9.530000E-1,1.419525E+0
9.540000E-1,1.420183E+0
9.550000E-1,1.420840E+0
9.560000E-1,1.420183E+0
9.570000E-1,1.420183E+0
9.580000E-1,1.420512E+0
9.590000E-1,1.420512E+0
9.600000E-1,1.420840E+0
9.610000E-1,1.420183E+0
9.620000E-1,1.420512E+0
9.630000E-1,1.421169E+0
9.640000E-1,1.421498E+0
9.650000E-1,1.421827E+0
9.660000E-1,1.421827E+0
9.670000E-1,1.422484E+0
9.680000E-1,1.422484E+0
9.690000E-1,1.422484E+0
9.700000E-1,1.422484E+0
9.710000E-1,1.423470E+0
9.720000E-1,1.423141E+0
9.730000E-1,1.423470E+0
9.740000E-1,1.422813E+0
9.750000E-1,1.424128E+0
9.760000E-1,1.423799E+0
9.770000E-1,1.424128E+0
9.780000E-1,1.424128E+0
9.790000E-1,1.424456E+0
9.800000E-1,1.424456E+0
9.810000E-1,1.425114E+0
9.820000E-1,1.425114E+0
9.830000E-1,1.425114E+0
9.840000E-1,1.425443E+0
9.850000E-1,1.426429E+0
9.860000E-1,1.426100E+0
9.870000E-1,1.426429E+0
9.880000E-1,1.427086E+0
9.890000E-1,1.427086E+0
9.900000E-1,1.427415E+0
9.910000E-1,1.427415E+0
9.920000E-1,1.427744E+0
9.930000E-1,1.427744E+0
9.940000E-1,1.428730E+0
9.950000E-1,1.428401E+0
9.960000E-1,1.429387E+0
9.970000E-1,1.429387E+0
9.980000E-1,1.429387E+0
9.990000E-1,1.429716E+0
1.000000E+0,1.430374E+0
1.001000E+0,1.430374E+0
1.002000E+0,1.431360E+0
1.003000E+0,1.431689E+0
1.004000E+0,1.431689E+0
1.005000E+0,1.432017E+0
1.006000E+0,1.432346E+0
1.007000E+0,1.433003E+0
1.008000E+0,1.433332E+0
1.009000E+0,1.433332E+0
1.010000E+0,1.433990E+0
1.011000E+0,1.433990E+0
1.012000E+0,1.434318E+0
1.013000E+0,1.435962E+0
1.014000E+0,1.435962E+0
1.015000E+0,1.435962E+0
1.016000E+0,1.436291E+0
1.017000E+0,1.435962E+0
1.018000E+0,1.436948E+0
1.019000E+0,1.437606E+0
1.020000E+0,1.438263E+0
1.021000E+0,1.437934E+0
1.022000E+0,1.438592E+0
1.023000E+0,1.438921E+0
1.024000E+0,1.439578E+0
1.025000E+0,1.439578E+0
1.026000E+0,1.439907E+0
1.027000E+0,1.440564E+0
1.028000E+0,1.441550E+0
1.029000E+0,1.441879E+0
1.030000E+0,1.442208E+0
1.031000E+0,1.442537E+0
1.032000E+0,1.442865E+0
1.033000E+0,1.444180E+0
1.034000E+0,1.444180E+0
1.035000E+0,1.444180E+0
1.036000E+0,1.445495E+0
1.037000E+0,1.445824E+0
1.038000E+0,1.446153E+0
1.039000E+0,1.446481E+0
1.040000E+0,1.446481E+0
1.041000E+0,1.447139E+0
1.042000E+0,1.447796E+0
1.043000E+0,1.448454E+0
1.044000E+0,1.448783E+0
1.045000E+0,1.449440E+0
1.046000E+0,1.450426E+0
1.047000E+0,1.451084E+0
1.048000E+0,1.451741E+0
1.049000E+0,1.452399E+0
1.050000E+0,1.452399E+0
1.051000E+0,1.453056E+0
1.052000E+0,1.453713E+0
1.053000E+0,1.454042E+0
1.054000E+0,1.454371E+0
1.055000E+0,1.455357E+0
1.056000E+0,1.455686E+0
1.057000E+0,1.456015E+0
1.058000E+0,1.457001E+0
1.059000E+0,1.457330E+0
1.060000E+0,1.458316E+0
1.061000E+0,1.458644E+0
1.062000E+0,1.459302E+0
1.063000E+0,1.459631E+0
1.064000E+0,1.460617E+0
1.065000E+0,1.461274E+0
1.066000E+0,1.461932E+0
1.067000E+0,1.462589E+0
1.068000E+0,1.463575E+0
1.069000E+0,1.463247E+0
1.070000E+0,1.464890E+0
1.071000E+0,1.464890E+0
1.072000E+0,1.465219E+0
1.073000E+0,1.466205E+0
1.074000E+0,1.466863E+0
1.075000E+0,1.467520E+0
1.076000E+0,1.468506E+0
1.077000E+0,1.468506E+0
1.078000E+0,1.469493E+0
1.079000E+0,1.470479E+0
1.080000E+0,1.470479E+0
1.081000E+0,1.471465E+0
1.082000E+0,1.471465E+0
1.083000E+0,1.472780E+0
1.084000E+0,1.473109E+0
1.085000E+0,1.473766E+0
1.086000E+0,1.475081E+0
1.087000E+0,1.475081E+0
1.088000E+0,1.476396E+0
1.089000E+0,1.476725E+0
1.090000E+0,1.476725E+0
1.091000E+0,1.478368E+0
1.092000E+0,1.478697E+0
1.093000E+0,1.479026E+0
1.094000E+0,1.480012E+0
1.095000E+0,1.480998E+0
1.096000E+0,1.481656E+0
1.097000E+0,1.482313E+0
1.098000E+0,1.482971E+0
1.099000E+0,1.483957E+0
1.100000E+0,1.484614E+0
1.101000E+0,1.485600E+0
1.102000E+0,1.486915E+0
1.103000E+0,1.486258E+0
1.104000E+0,1.487244E+0
1.105000E+0,1.488230E+0
1.106000E+0,1.488888E+0
1.107000E+0,1.489216E+0
1.108000E+0,1.490203E+0
1.109000E+0,1.490531E+0
1.110000E+0,1.491846E+0
1.111000E+0,1.492504E+0
1.112000E+0,1.493490E+0
1.113000E+0,1.494476E+0
1.114000E+0,1.495134E+0
1.115000E+0,1.495791E+0
1.116000E+0,1.496449E+0
1.117000E+0,1.497435E+0
1.118000E+0,1.497435E+0
1.119000E+0,1.499407E+0
1.120000E+0,1.499407E+0
1.121000E+0,1.499407E+0
1.122000E+0,1.500722E+0
1.123000E+0,1.501708E+0
1.124000E+0,1.503352E+0
1.125000E+0,1.503352E+0
1.126000E+0,1.504009E+0
1.127000E+0,1.503023E+0
1.128000E+0,1.505653E+0
1.129000E+0,1.506639E+0
1.130000E+0,1.507625E+0
1.131000E+0,1.507954E+0
1.132000E+0,1.508940E+0
1.133000E+0,1.509598E+0
1.134000E+0,1.509598E+0
1.135000E+0,1.511570E+0
1.136000E+0,1.512228E+0
1.137000E+0,1.512228E+0
1.138000E+0,1.513543E+0
1.139000E+0,1.514200E+0
1.140000E+0,1.514529E+0
1.141000E+0,1.516172E+0
1.142000E+0,1.516830E+0
1.143000E+0,1.517159E+0
1.144000E+0,1.518145E+0
1.145000E+0,1.518802E+0
1.146000E+0,1.519131E+0
1.147000E+0,1.519788E+0
1.148000E+0,1.521103E+0
1.149000E+0,1.522090E+0
1.150000E+0,1.522747E+0
1.151000E+0,1.523404E+0
1.152000E+0,1.525377E+0
1.153000E+0,1.526034E+0
1.154000E+0,1.526363E+0
1.155000E+0,1.527021E+0
1.156000E+0,1.527349E+0
1.157000E+0,1.529322E+0
1.158000E+0,1.529650E+0
1.159000E+0,1.530637E+0
1.160000E+0,1.531294E+0
1.161000E+0,1.532609E+0
1.162000E+0,1.533266E+0
1.163000E+0,1.533595E+0
1.164000E+0,1.535239E+0
1.165000E+0,1.535239E+0
1.166000E+0,1.537211E+0
1.167000E+0,1.538197E+0
1.168000E+0,1.538526E+0
1.169000E+0,1.539512E+0
1.170000E+0,1.540827E+0
1.171000E+0,1.540827E+0
1.172000E+0,1.541485E+0
1.173000E+0,1.542471E+0
1.174000E+0,1.543128E+0
1.175000E+0,1.544772E+0
1.176000E+0,1.545101E+0
1.177000E+0,1.546087E+0
1.178000E+0,1.546744E+0
1.179000E+0,1.547402E+0
1.180000E+0,1.548388E+0
1.181000E+0,1.549703E+0
1.182000E+0,1.550360E+0
1.183000E+0,1.551347E+0
1.184000E+0,1.552004E+0
1.185000E+0,1.553976E+0
1.186000E+0,1.553648E+0
1.187000E+0,1.554634E+0
1.188000E+0,1.555620E+0
1.189000E+0,1.555949E+0
1.190000E+0,1.557264E+0
1.191000E+0,1.558250E+0
1.192000E+0,1.559236E+0
1.193000E+0,1.559565E+0
1.194000E+0,1.560880E+0
1.195000E+0,1.561866E+0
1.196000E+0,1.562852E+0
1.197000E+0,1.563510E+0
1.198000E+0,1.564496E+0
1.199000E+0,1.565811E+0
1.200000E+0,1.565811E+0
1.201000E+0,1.567454E+0
1.202000E+0,1.568112E+0
1.203000E+0,1.569098E+0
1.204000E+0,1.569756E+0
1.205000E+0,1.570742E+0
1.206000E+0,1.571728E+0
1.207000E+0,1.572385E+0
1.208000E+0,1.573372E+0
1.209000E+0,1.574358E+0
1.210000E+0,1.575673E+0
1.211000E+0,1.576001E+0
1.212000E+0,1.577645E+0
1.213000E+0,1.578631E+0
1.214000E+0,1.579289E+0
1.215000E+0,1.579946E+0
1.216000E+0,1.580932E+0
1.217000E+0,1.582576E+0
1.218000E+0,1.582576E+0
1.219000E+0,1.584220E+0
1.220000E+0,1.584877E+0
1.221000E+0,1.585863E+0
1.222000E+0,1.586521E+0
1.223000E+0,1.587836E+0
1.224000E+0,1.588822E+0
1.225000E+0,1.589479E+0
1.226000E+0,1.590466E+0
1.227000E+0,1.591123E+0
1.228000E+0,1.592767E+0
1.229000E+0,1.593753E+0
1.230000E+0,1.594739E+0
1.231000E+0,1.595725E+0
1.232000E+0,1.596383E+0
1.233000E+0,1.597698E+0
1.234000E+0,1.599013E+0
1.235000E+0,1.599670E+0
1.236000E+0,1.600985E+0
1.237000E+0,1.600985E+0
1.238000E+0,1.602300E+0
1.239000E+0,1.603615E+0
1.240000E+0,1.604272E+0
1.241000E+0,1.605587E+0
1.242000E+0,1.606245E+0
1.243000E+0,1.607231E+0
1.244000E+0,1.608217E+0
1.245000E+0,1.609532E+0
1.246000E+0,1.610518E+0
1.247000E+0,1.612162E+0
1.248000E+0,1.612819E+0
1.249000E+0,1.613477E+0
1.250000E+0,1.614134E+0
1.251000E+0,1.615449E+0
1.252000E+0,1.618079E+0
1.253000E+0,1.617422E+0
1.254000E+0,1.618737E+0
1.255000E+0,1.619723E+0
1.256000E+0,1.620709E+0
1.257000E+0,1.622024E+0
1.258000E+0,1.623339E+0
1.259000E+0,1.623996E+0
1.260000E+0,1.625311E+0
1.261000E+0,1.625969E+0
1.262000E+0,1.627941E+0
1.263000E+0,1.627941E+0
1.264000E+0,1.629585E+0
1.265000E+0,1.630571E+0
1.266000E+0,1.631557E+0
1.267000E+0,1.632543E+0
1.268000E+0,1.634187E+0
1.269000E+0,1.635173E+0
1.270000E+0,1.636488E+0
1.271000E+0,1.637474E+0
1.272000E+0,1.638460E+0
1.273000E+0,1.639447E+0
1.274000E+0,1.640104E+0
1.275000E+0,1.641090E+0
1.276000E+0,1.642405E+0
1.277000E+0,1.643720E+0
1.278000E+0,1.644706E+0
1.279000E+0,1.646350E+0
1.280000E+0,1.647336E+0
1.281000E+0,1.648322E+0
1.282000E+0,1.649637E+0
1.283000E+0,1.650952E+0
1.284000E+0,1.652267E+0
1.285000E+0,1.653253E+0
1.286000E+0,1.654240E+0
1.287000E+0,1.655226E+0
1.288000E+0,1.656212E+0
1.289000E+0,1.656869E+0
1.290000E+0,1.658842E+0
1.291000E+0,1.659828E+0
1.292000E+0,1.661472E+0
1.293000E+0,1.662129E+0
1.294000E+0,1.663115E+0
1.295000E+0,1.664430E+0
1.296000E+0,1.665745E+0
1.297000E+0,1.665745E+0
1.298000E+0,1.668046E+0
1.299000E+0,1.669361E+0
1.300000E+0,1.670676E+0
1.301000E+0,1.671662E+0
1.302000E+0,1.673306E+0
1.303000E+0,1.672648E+0
1.304000E+0,1.674950E+0
1.305000E+0,1.676264E+0
1.306000E+0,1.677251E+0
1.307000E+0,1.678894E+0
1.308000E+0,1.680209E+0
1.309000E+0,1.680538E+0
1.310000E+0,1.682182E+0
1.311000E+0,1.683168E+0
1.312000E+0,1.684154E+0
1.313000E+0,1.685798E+0
1.314000E+0,1.686784E+0
1.315000E+0,1.687770E+0
1.316000E+0,1.690071E+0
1.317000E+0,1.690400E+0
1.318000E+0,1.691386E+0
1.319000E+0,1.693687E+0
1.320000E+0,1.694016E+0
1.321000E+0,1.695002E+0
1.322000E+0,1.696317E+0
1.323000E+0,1.697303E+0
1.324000E+0,1.699604E+0
1.325000E+0,1.699276E+0
1.326000E+0,1.699933E+0
1.327000E+0,1.701577E+0
1.328000E+0,1.703549E+0
1.329000E+0,1.704864E+0
1.330000E+0,1.705850E+0
1.331000E+0,1.707165E+0
1.332000E+0,1.708151E+0
1.333000E+0,1.708809E+0
1.334000E+0,1.710124E+0
1.335000E+0,1.711439E+0
1.336000E+0,1.712754E+0
1.337000E+0,1.713740E+0
1.338000E+0,1.714397E+0
1.339000E+0,1.716698E+0
1.340000E+0,1.716698E+0
1.341000E+0,1.717685E+0
1.342000E+0,1.719000E+0
1.343000E+0,1.719657E+0
1.344000E+0,1.721301E+0
1.345000E+0,1.722616E+0
1.346000E+0,1.723273E+0
1.347000E+0,1.724259E+0
1.348000E+0,1.725903E+0
1.349000E+0,1.726560E+0
1.350000E+0,1.727547E+0
1.351000E+0,1.728861E+0
1.352000E+0,1.729519E+0
1.353000E+0,1.730834E+0
1.354000E+0,1.732149E+0
1.355000E+0,1.733464E+0
1.356000E+0,1.734121E+0
1.357000E+0,1.734779E+0
1.358000E+0,1.735765E+0
1.359000E+0,1.736422E+0
1.360000E+0,1.737737E+0
1.361000E+0,1.738723E+0
1.362000E+0,1.740038E+0
1.363000E+0,1.741025E+0
1.364000E+0,1.742339E+0
1.365000E+0,1.742997E+0
1.366000E+0,1.743983E+0
1.367000E+0,1.744641E+0
1.368000E+0,1.745956E+0
1.369000E+0,1.747270E+0
1.370000E+0,1.747928E+0
1.371000E+0,1.748257E+0
1.372000E+0,1.749572E+0
1.373000E+0,1.750229E+0
1.374000E+0,1.752201E+0
1.375000E+0,1.752201E+0
1.376000E+0,1.753516E+0
1.377000E+0,1.754174E+0
1.378000E+0,1.755160E+0
1.379000E+0,1.756475E+0
1.380000E+0,1.755817E+0
1.381000E+0,1.757461E+0
1.382000E+0,1.759433E+0
1.383000E+0,1.759105E+0
1.384000E+0,1.760091E+0
1.385000E+0,1.761077E+0
1.386000E+0,1.761077E+0
1.387000E+0,1.762063E+0
1.388000E+0,1.763378E+0
1.389000E+0,1.763707E+0
1.390000E+0,1.764364E+0
1.391000E+0,1.765679E+0
1.392000E+0,1.766337E+0
1.393000E+0,1.766666E+0
1.394000E+0,1.767323E+0
1.395000E+0,1.767981E+0
1.396000E+0,1.768309E+0
1.397000E+0,1.769295E+0
1.398000E+0,1.770610E+0
1.399000E+0,1.771268E+0
1.400000E+0,1.771268E+0
1.401000E+0,1.773240E+0
1.402000E+0,1.773240E+0
1.403000E+0,1.773569E+0
1.404000E+0,1.774884E+0
1.405000E+0,1.774555E+0
1.406000E+0,1.775541E+0
1.407000E+0,1.776199E+0
1.408000E+0,1.777514E+0
1.409000E+0,1.777185E+0
1.410000E+0,1.777514E+0
1.411000E+0,1.778500E+0
1.412000E+0,1.778500E+0
1.413000E+0,1.778829E+0
1.414000E+0,1.780144E+0
1.415000E+0,1.780801E+0
1.416000E+0,1.780801E+0
1.417000E+0,1.782445E+0
1.418000E+0,1.782445E+0
1.419000E+0,1.782445E+0
1.420000E+0,1.782773E+0
1.421000E+0,1.782445E+0
1.422000E+0,1.783760E+0
1.423000E+0,1.784088E+0
1.424000E+0,1.785075E+0
1.425000E+0,1.785075E+0
1.426000E+0,1.785403E+0
1.427000E+0,1.785732E+0
1.428000E+0,1.786061E+0
1.429000E+0,1.786389E+0
1.430000E+0,1.787047E+0
1.431000E+0,1.787704E+0
1.432000E+0,1.788362E+0
1.433000E+0,1.788691E+0
1.434000E+0,1.789019E+0
1.435000E+0,1.789019E+0
1.436000E+0,1.789677E+0
1.437000E+0,1.789677E+0
1.438000E+0,1.790663E+0
1.439000E+0,1.789677E+0
1.440000E+0,1.790663E+0
1.441000E+0,1.790334E+0
1.442000E+0,1.791320E+0
1.443000E+0,1.790663E+0
1.444000E+0,1.791320E+0
1.445000E+0,1.791978E+0
1.446000E+0,1.791320E+0
1.447000E+0,1.792635E+0
1.448000E+0,1.792964E+0
1.449000E+0,1.792635E+0
1.450000E+0,1.792964E+0
1.451000E+0,1.793622E+0
1.452000E+0,1.793293E+0
1.453000E+0,1.794279E+0
1.454000E+0,1.793622E+0
1.455000E+0,1.794279E+0
1.456000E+0,1.794279E+0
1.457000E+0,1.794608E+0
1.458000E+0,1.793950E+0
1.459000E+0,1.794608E+0
1.460000E+0,1.794608E+0
1.461000E+0,1.795265E+0
1.462000E+0,1.794936E+0
1.463000E+0,1.794936E+0
1.464000E+0,1.794608E+0
1.465000E+0,1.795594E+0
1.466000E+0,1.795594E+0
1.467000E+0,1.796251E+0
1.468000E+0,1.795923E+0
1.469000E+0,1.795923E+0
1.470000E+0,1.796580E+0
1.471000E+0,1.795923E+0
1.472000E+0,1.796251E+0
1.473000E+0,1.796580E+0
1.474000E+0,1.796580E+0
1.475000E+0,1.796909E+0
1.476000E+0,1.796580E+0
1.477000E+0,1.796580E+0
1.478000E+0,1.796251E+0
1.479000E+0,1.796909E+0
1.480000E+0,1.797238E+0
1.481000E+0,1.796580E+0
1.482000E+0,1.797238E+0
1.483000E+0,1.797238E+0
1.484000E+0,1.797895E+0
1.485000E+0,1.797895E+0
1.486000E+0,1.797566E+0
1.487000E+0,1.797895E+0
1.488000E+0,1.797895E+0
1.489000E+0,1.797238E+0
1.490000E+0,1.796909E+0
1.491000E+0,1.797238E+0
1.492000E+0,1.798224E+0
1.493000E+0,1.797566E+0
1.494000E+0,1.797238E+0
1.495000E+0,1.797895E+0
1.496000E+0,1.797895E+0
1.497000E+0,1.797238E+0
1.498000E+0,1.798224E+0
1.499000E+0,1.797238E+0
1.500000E+0,1.797895E+0
1.501000E+0,1.797895E+0
1.502000E+0,1.798224E+0
1.503000E+0,1.797895E+0
1.504000E+0,1.797566E+0
1.505000E+0,1.797895E+0
1.506000E+0,1.798224E+0
1.507000E+0,1.797566E+0
1.508000E+0,1.797566E+0
1.509000E+0,1.797566E+0
1.510000E+0,1.797895E+0
1.511000E+0,1.797895E+0
1.512000E+0,1.797895E+0
1.513000E+0,1.797566E+0
1.514000E+0,1.797566E+0
1.515000E+0,1.797895E+0
1.516000E+0,1.797238E+0
1.517000E+0,1.797895E+0
1.518000E+0,1.797895E+0
1.519000E+0,1.797238E+0
1.520000E+0,1.797238E+0
1.521000E+0,1.798224E+0
1.522000E+0,1.797566E+0
1.523000E+0,1.797566E+0
1.524000E+0,1.796909E+0
1.525000E+0,1.797238E+0
1.526000E+0,1.797238E+0
1.527000E+0,1.797238E+0
1.528000E+0,1.797238E+0
1.529000E+0,1.797566E+0
1.530000E+0,1.797895E+0
1.531000E+0,1.797566E+0
1.532000E+0,1.796909E+0
1.533000E+0,1.797566E+0
1.534000E+0,1.797238E+0
1.535000E+0,1.797566E+0
1.536000E+0,1.796909E+0
1.537000E+0,1.797238E+0
1.538000E+0,1.796909E+0
1.539000E+0,1.796909E+0
1.540000E+0,1.796909E+0
1.541000E+0,1.797238E+0
1.542000E+0,1.796580E+0
1.543000E+0,1.797238E+0
1.544000E+0,1.796580E+0
1.545000E+0,1.796909E+0
1.546000E+0,1.796909E+0
1.547000E+0,1.797238E+0
1.548000E+0,1.796580E+0
1.549000E+0,1.796909E+0
1.550000E+0,1.796909E+0
1.551000E+0,1.796251E+0
1.552000E+0,1.796909E+0
1.553000E+0,1.796909E+0
1.554000E+0,1.796580E+0
1.555000E+0,1.796909E+0
1.556000E+0,1.795923E+0
1.557000E+0,1.796580E+0
1.558000E+0,1.795923E+0
1.559000E+0,1.796251E+0
1.560000E+0,1.796580E+0
1.561000E+0,1.795923E+0
1.562000E+0,1.796251E+0
1.563000E+0,1.796251E+0
1.564000E+0,1.796580E+0
1.565000E+0,1.796580E+0
1.566000E+0,1.796580E+0
1.567000E+0,1.796909E+0
1.568000E+0,1.796580E+0
1.569000E+0,1.796251E+0
1.570000E+0,1.796251E+0
1.571000E+0,1.795923E+0
1.572000E+0,1.796909E+0
1.573000E+0,1.796251E+0
1.574000E+0,1.796251E+0
1.575000E+0,1.796909E+0
1.576000E+0,1.795923E+0
1.577000E+0,1.795923E+0
1.578000E+0,1.795923E+0
1.579000E+0,1.796909E+0
1.580000E+0,1.795923E+0
1.581000E+0,1.796251E+0
1.582000E+0,1.796251E+0
1.583000E+0,1.796580E+0
1.584000E+0,1.796251E+0
1.585000E+0,1.796909E+0
1.586000E+0,1.796580E+0
1.587000E+0,1.795923E+0
1.588000E+0,1.796580E+0
1.589000E+0,1.796580E+0
1.590000E+0,1.796251E+0
1.591000E+0,1.796251E+0
1.592000E+0,1.795923E+0
1.593000E+0,1.796909E+0
1.594000E+0,1.796580E+0
1.595000E+0,1.796580E+0
1.596000E+0,1.796580E+0
1.597000E+0,1.797238E+0
1.598000E+0,1.796909E+0
1.599000E+0,1.796580E+0
1.600000E+0,1.795923E+0
1.601000E+0,1.796251E+0
1.602000E+0,1.795594E+0
1.603000E+0,1.796251E+0
1.604000E+0,1.795594E+0
1.605000E+0,1.796251E+0
1.606000E+0,1.795923E+0
1.607000E+0,1.796251E+0
1.608000E+0,1.796580E+0
1.609000E+0,1.795594E+0
1.610000E+0,1.796580E+0
1.611000E+0,1.795923E+0
1.612000E+0,1.796251E+0
1.613000E+0,1.796909E+0
1.614000E+0,1.796909E+0
1.615000E+0,1.796580E+0
1.616000E+0,1.796251E+0
1.617000E+0,1.797238E+0
1.618000E+0,1.796580E+0
1.619000E+0,1.796909E+0
1.620000E+0,1.796251E+0
1.621000E+0,1.796909E+0
1.622000E+0,1.796251E+0
1.623000E+0,1.795923E+0
1.624000E+0,1.796251E+0
1.625000E+0,1.796580E+0
1.626000E+0,1.796251E+0
1.627000E+0,1.796580E+0
1.628000E+0,1.796251E+0
1.629000E+0,1.796580E+0
1.630000E+0,1.796909E+0
1.631000E+0,1.796580E+0
1.632000E+0,1.797238E+0
1.633000E+0,1.796580E+0
1.634000E+0,1.797566E+0
1.635000E+0,1.797566E+0
1.636000E+0,1.796580E+0
1.637000E+0,1.796909E+0
1.638000E+0,1.796909E+0
1.639000E+0,1.796580E+0
1.640000E+0,1.796909E+0
1.641000E+0,1.796909E+0
1.642000E+0,1.797238E+0
1.643000E+0,1.796580E+0
1.644000E+0,1.796580E+0
1.645000E+0,1.797238E+0
1.646000E+0,1.797238E+0
1.647000E+0,1.797238E+0
1.648000E+0,1.796580E+0
1.649000E+0,1.797238E+0
1.650000E+0,1.797895E+0
1.651000E+0,1.796580E+0
1.652000E+0,1.797238E+0
1.653000E+0,1.797238E+0
1.654000E+0,1.796909E+0
1.655000E+0,1.797238E+0
1.656000E+0,1.796909E+0
1.657000E+0,1.796909E+0
1.658000E+0,1.797566E+0
1.659000E+0,1.796909E+0
1.660000E+0,1.797238E+0
1.661000E+0,1.796909E+0
1.662000E+0,1.797566E+0
1.663000E+0,1.797895E+0
1.664000E+0,1.797238E+0
1.665000E+0,1.796909E+0
1.666000E+0,1.797238E+0
1.667000E+0,1.796909E+0
1.668000E+0,1.797238E+0
1.669000E+0,1.797566E+0
1.670000E+0,1.796909E+0
1.671000E+0,1.796909E+0
1.672000E+0,1.797238E+0
1.673000E+0,1.797566E+0
1.674000E+0,1.797566E+0
1.675000E+0,1.796909E+0
1.676000E+0,1.797238E+0
1.677000E+0,1.797238E+0
1.678000E+0,1.797238E+0
1.679000E+0,1.797566E+0
1.680000E+0,1.797238E+0
1.681000E+0,1.797566E+0
1.682000E+0,1.796580E+0
1.683000E+0,1.797238E+0
1.684000E+0,1.797566E+0
1.685000E+0,1.797238E+0
1.686000E+0,1.797238E+0
1.687000E+0,1.797238E+0
1.688000E+0,1.796909E+0
1.689000E+0,1.797238E+0
1.690000E+0,1.796909E+0
1.691000E+0,1.797566E+0
1.692000E+0,1.797238E+0
1.693000E+0,1.797238E+0
1.694000E+0,1.796909E+0
1.695000E+0,1.797238E+0
1.696000E+0,1.797566E+0
1.697000E+0,1.797238E+0
1.698000E+0,1.796909E+0
1.699000E+0,1.796909E+0
1.700000E+0,1.797238E+0
1.701000E+0,1.797238E+0
1.702000E+0,1.797895E+0
1.703000E+0,1.797566E+0
1.704000E+0,1.796909E+0
1.705000E+0,1.796909E+0
1.706000E+0,1.797566E+0
1.707000E+0,1.796909E+0
1.708000E+0,1.797238E+0
1.709000E+0,1.796909E+0
1.710000E+0,1.796251E+0
1.711000E+0,1.796580E+0
1.712000E+0,1.797238E+0
1.713000E+0,1.797238E+0
1.714000E+0,1.796909E+0
1.715000E+0,1.796909E+0
1.716000E+0,1.796909E+0
1.717000E+0,1.797238E+0
1.718000E+0,1.796909E+0
1.719000E+0,1.796580E+0
1.720000E+0,1.796251E+0
1.721000E+0,1.796580E+0
1.722000E+0,1.796580E+0
1.723000E+0,1.796909E+0
1.724000E+0,1.796251E+0
1.725000E+0,1.796909E+0
1.726000E+0,1.796909E+0
1.727000E+0,1.796251E+0
1.728000E+0,1.795923E+0
1.729000E+0,1.797238E+0
1.730000E+0,1.796251E+0
1.731000E+0,1.796580E+0
1.732000E+0,1.796580E+0
1.733000E+0,1.796580E+0
1.734000E+0,1.795923E+0
1.735000E+0,1.797238E+0
1.736000E+0,1.796251E+0
1.737000E+0,1.796580E+0
1.738000E+0,1.796909E+0
1.739000E+0,1.796909E+0
1.740000E+0,1.797566E+0
1.741000E+0,1.796580E+0
1.742000E+0,1.795923E+0
1.743000E+0,1.796251E+0
1.744000E+0,1.795923E+0
1.745000E+0,1.796909E+0
1.746000E+0,1.796251E+0
1.747000E+0,1.796580E+0
1.748000E+0,1.795923E+0
1.749000E+0,1.796251E+0
1.750000E+0,1.796251E+0
1.751000E+0,1.795594E+0
1.752000E+0,1.795923E+0
1.753000E+0,1.796251E+0
1.754000E+0,1.795265E+0
1.755000E+0,1.796251E+0
1.756000E+0,1.796251E+0
1.757000E+0,1.795265E+0
1.758000E+0,1.796251E+0
1.759000E+0,1.795265E+0
1.760000E+0,1.795594E+0
1.761000E+0,1.795594E+0
1.762000E+0,1.795923E+0
1.763000E+0,1.795594E+0
1.764000E+0,1.795594E+0
1.765000E+0,1.795594E+0
1.766000E+0,1.795265E+0
1.767000E+0,1.794936E+0
1.768000E+0,1.795594E+0
1.769000E+0,1.795594E+0
1.770000E+0,1.795265E+0
1.771000E+0,1.795265E+0
1.772000E+0,1.795594E+0
1.773000E+0,1.795594E+0
1.774000E+0,1.795594E+0
1.775000E+0,1.795265E+0
1.776000E+0,1.794936E+0
1.777000E+0,1.795265E+0
1.778000E+0,1.795265E+0
1.779000E+0,1.794936E+0
1.780000E+0,1.794936E+0
1.781000E+0,1.794936E+0
1.782000E+0,1.794936E+0
1.783000E+0,1.794608E+0
1.784000E+0,1.795265E+0
1.785000E+0,1.794936E+0
1.786000E+0,1.794936E+0
1.787000E+0,1.794608E+0
1.788000E+0,1.794936E+0
1.789000E+0,1.794936E+0
1.790000E+0,1.794608E+0
1.791000E+0,1.795265E+0
1.792000E+0,1.794936E+0
1.793000E+0,1.794279E+0
1.794000E+0,1.794279E+0
1.795000E+0,1.794279E+0
1.796000E+0,1.794279E+0
1.797000E+0,1.794936E+0
1.798000E+0,1.794608E+0
1.799000E+0,1.794279E+0
1.800000E+0,1.794608E+0
1.801000E+0,1.795265E+0
1.802000E+0,1.794279E+0
1.803000E+0,1.793622E+0
1.804000E+0,1.794279E+0
1.805000E+0,1.793950E+0
1.806000E+0,1.794279E+0
1.807000E+0,1.794279E+0
1.808000E+0,1.793950E+0
1.809000E+0,1.793622E+0
1.810000E+0,1.794608E+0
1.811000E+0,1.793950E+0
1.812000E+0,1.794279E+0
1.813000E+0,1.793622E+0
1.814000E+0,1.794279E+0
1.815000E+0,1.794279E+0
1.816000E+0,1.793950E+0
1.817000E+0,1.794279E+0
1.818000E+0,1.794279E+0
1.819000E+0,1.793950E+0
1.820000E+0,1.793622E+0
1.821000E+0,1.793622E+0
1.822000E+0,1.793622E+0
1.823000E+0,1.793950E+0
1.824000E+0,1.793622E+0
1.825000E+0,1.793622E+0
1.826000E+0,1.793293E+0
1.827000E+0,1.793950E+0
1.828000E+0,1.792964E+0
1.829000E+0,1.793293E+0
1.830000E+0,1.793293E+0
1.831000E+0,1.793293E+0
1.832000E+0,1.793950E+0
1.833000E+0,1.793622E+0
1.834000E+0,1.793622E+0
1.835000E+0,1.793293E+0
1.836000E+0,1.793293E+0
1.837000E+0,1.793950E+0
1.838000E+0,1.793622E+0
1.839000E+0,1.793293E+0
1.840000E+0,1.793293E+0
1.841000E+0,1.793622E+0
1.842000E+0,1.793293E+0
1.843000E+0,1.793622E+0
1.844000E+0,1.792964E+0
1.845000E+0,1.793293E+0
1.846000E+0,1.793293E+0
1.847000E+0,1.793622E+0
1.848000E+0,1.793293E+0
1.849000E+0,1.793622E+0
1.850000E+0,1.793950E+0
1.851000E+0,1.793293E+0
1.852000E+0,1.792964E+0
1.853000E+0,1.792964E+0
1.854000E+0,1.792964E+0
1.855000E+0,1.793622E+0
1.856000E+0,1.793622E+0
1.857000E+0,1.792635E+0
1.858000E+0,1.793622E+0
1.859000E+0,1.793293E+0
1.860000E+0,1.792964E+0
1.861000E+0,1.792635E+0
1.862000E+0,1.792964E+0
1.863000E+0,1.793293E+0
1.864000E+0,1.792964E+0
1.865000E+0,1.793293E+0
1.866000E+0,1.793293E+0
1.867000E+0,1.792964E+0
1.868000E+0,1.793622E+0
1.869000E+0,1.793622E+0
1.870000E+0,1.792964E+0
1.871000E+0,1.793293E+0
1.872000E+0,1.793293E+0
1.873000E+0,1.792635E+0
1.874000E+0,1.792964E+0
1.875000E+0,1.792635E+0
1.876000E+0,1.792307E+0
1.877000E+0,1.792964E+0
1.878000E+0,1.791320E+0
1.879000E+0,1.792635E+0
1.880000E+0,1.792307E+0
1.881000E+0,1.792964E+0
1.882000E+0,1.792964E+0
1.883000E+0,1.793293E+0
1.884000E+0,1.792964E+0
1.885000E+0,1.792307E+0
1.886000E+0,1.792635E+0
1.887000E+0,1.792964E+0
1.888000E+0,1.792635E+0
1.889000E+0,1.792964E+0
1.890000E+0,1.792635E+0
1.891000E+0,1.792307E+0
1.892000E+0,1.792964E+0
1.893000E+0,1.792635E+0
1.894000E+0,1.792307E+0
1.895000E+0,1.792307E+0
1.896000E+0,1.792635E+0
1.897000E+0,1.793293E+0
1.898000E+0,1.792307E+0
1.899000E+0,1.792635E+0
1.900000E+0,1.792635E+0
1.901000E+0,1.793950E+0
1.902000E+0,1.792635E+0
1.903000E+0,1.792307E+0
1.904000E+0,1.792964E+0
1.905000E+0,1.792307E+0
1.906000E+0,1.792635E+0
1.907000E+0,1.792964E+0
1.908000E+0,1.792307E+0
1.909000E+0,1.792307E+0
1.910000E+0,1.792307E+0
1.911000E+0,1.792307E+0
1.912000E+0,1.791649E+0
1.913000E+0,1.791649E+0
1.914000E+0,1.792635E+0
1.915000E+0,1.792635E+0
1.916000E+0,1.792307E+0
1.917000E+0,1.792635E+0
1.918000E+0,1.792307E+0
1.919000E+0,1.792635E+0
1.920000E+0,1.792964E+0
1.921000E+0,1.791978E+0
1.922000E+0,1.791320E+0
1.923000E+0,1.791978E+0
1.924000E+0,1.792964E+0
1.925000E+0,1.792635E+0
1.926000E+0,1.792307E+0
1.927000E+0,1.791978E+0
1.928000E+0,1.792307E+0
1.929000E+0,1.792307E+0
1.930000E+0,1.792635E+0
1.931000E+0,1.792635E+0
1.932000E+0,1.792964E+0
1.933000E+0,1.792635E+0
1.934000E+0,1.792307E+0
1.935000E+0,1.792307E+0
1.936000E+0,1.792307E+0
1.937000E+0,1.791978E+0
1.938000E+0,1.792307E+0
1.939000E+0,1.792307E+0
1.940000E+0,1.792307E+0
1.941000E+0,1.791978E+0
1.942000E+0,1.791649E+0
1.943000E+0,1.791649E+0
1.944000E+0,1.792307E+0
1.945000E+0,1.792307E+0
1.946000E+0,1.791649E+0
1.947000E+0,1.791978E+0
1.948000E+0,1.792307E+0
1.949000E+0,1.792307E+0
1.950000E+0,1.792964E+0
1.951000E+0,1.791978E+0
1.952000E+0,1.792635E+0
1.953000E+0,1.791978E+0
1.954000E+0,1.791649E+0
1.955000E+0,1.792307E+0
1.956000E+0,1.791978E+0
1.957000E+0,1.791978E+0
1.958000E+0,1.791320E+0
1.959000E+0,1.791978E+0
1.960000E+0,1.791320E+0
1.961000E+0,1.790992E+0
1.962000E+0,1.791649E+0
1.963000E+0,1.792307E+0
1.964000E+0,1.792635E+0
1.965000E+0,1.791649E+0
1.966000E+0,1.791649E+0
1.967000E+0,1.791978E+0
1.968000E+0,1.792307E+0
1.969000E+0,1.791649E+0
1.970000E+0,1.791320E+0
1.971000E+0,1.791320E+0
1.972000E+0,1.791649E+0
1.973000E+0,1.791978E+0
1.974000E+0,1.791978E+0
1.975000E+0,1.791978E+0
1.976000E+0,1.790005E+0
1.977000E+0,1.791320E+0
1.978000E+0,1.791320E+0
1.979000E+0,1.791320E+0
1.980000E+0,1.791649E+0
1.981000E+0,1.791320E+0
1.982000E+0,1.791320E+0
1.983000E+0,1.792307E+0
1.984000E+0,1.791320E+0
1.985000E+0,1.791320E+0
1.986000E+0,1.791978E+0
1.987000E+0,1.791320E+0
1.988000E+0,1.790992E+0
1.989000E+0,1.790992E+0
1.990000E+0,1.790992E+0
1.991000E+0,1.790663E+0
1.992000E+0,1.790992E+0
1.993000E+0,1.790992E+0
1.994000E+0,1.790663E+0
1.995000E+0,1.790663E+0
1.996000E+0,1.791320E+0
1.997000E+0,1.790992E+0
1.998000E+0,1.791649E+0
1.999000E+0,1.790663E+0
2.000000E+0,1.790663E+0
2.001000E+0,1.790334E+0
2.002000E+0,1.790334E+0
2.003000E+0,1.790663E+0
2.004000E+0,1.789677E+0
2.005000E+0,1.790334E+0
2.006000E+0,1.790663E+0
2.007000E+0,1.790005E+0
2.008000E+0,1.790663E+0
2.009000E+0,1.790992E+0
2.010000E+0,1.790005E+0
2.011000E+0,1.790992E+0
2.012000E+0,1.790334E+0
2.013000E+0,1.789677E+0
2.014000E+0,1.790005E+0
2.015000E+0,1.790005E+0
2.016000E+0,1.789019E+0
2.017000E+0,1.789348E+0
2.018000E+0,1.789677E+0
2.019000E+0,1.789348E+0
2.020000E+0,1.789019E+0
2.021000E+0,1.789348E+0
2.022000E+0,1.789019E+0
2.023000E+0,1.788691E+0
2.024000E+0,1.789019E+0
2.025000E+0,1.788691E+0
2.026000E+0,1.787704E+0
2.027000E+0,1.788691E+0
2.028000E+0,1.788362E+0
2.029000E+0,1.789019E+0
2.030000E+0,1.787047E+0
2.031000E+0,1.788691E+0
2.032000E+0,1.788362E+0
2.033000E+0,1.787704E+0
2.034000E+0,1.788033E+0
2.035000E+0,1.787704E+0
2.036000E+0,1.787376E+0
2.037000E+0,1.787704E+0
2.038000E+0,1.787047E+0
2.039000E+0,1.787376E+0
2.040000E+0,1.787376E+0
2.041000E+0,1.787047E+0
2.042000E+0,1.787047E+0
2.043000E+0,1.786718E+0
2.044000E+0,1.786389E+0
2.045000E+0,1.786389E+0
2.046000E+0,1.787047E+0
2.047000E+0,1.786718E+0
2.048000E+0,1.786061E+0
2.049000E+0,1.786061E+0
2.050000E+0,1.786061E+0
2.051000E+0,1.785403E+0
2.052000E+0,1.786061E+0
2.053000E+0,1.785732E+0
2.054000E+0,1.785732E+0
2.055000E+0,1.785403E+0
2.056000E+0,1.784417E+0
2.057000E+0,1.785075E+0
2.058000E+0,1.785403E+0
2.059000E+0,1.784417E+0
2.060000E+0,1.784746E+0
2.061000E+0,1.783431E+0
2.062000E+0,1.784088E+0
2.063000E+0,1.783760E+0
2.064000E+0,1.783760E+0
2.065000E+0,1.783760E+0
2.066000E+0,1.783102E+0
2.067000E+0,1.782773E+0
2.068000E+0,1.783431E+0
2.069000E+0,1.782773E+0
2.070000E+0,1.782773E+0
2.071000E+0,1.782116E+0
2.072000E+0,1.781787E+0
2.073000E+0,1.782116E+0
2.074000E+0,1.781130E+0
2.075000E+0,1.781458E+0
2.076000E+0,1.781130E+0
2.077000E+0,1.780472E+0
2.078000E+0,1.780472E+0
2.079000E+0,1.780472E+0
2.080000E+0,1.780801E+0
2.081000E+0,1.780144E+0
2.082000E+0,1.779157E+0
2.083000E+0,1.779157E+0
2.084000E+0,1.779815E+0
2.085000E+0,1.779157E+0
2.086000E+0,1.779486E+0
2.087000E+0,1.778829E+0
2.088000E+0,1.778500E+0
2.089000E+0,1.778500E+0
2.090000E+0,1.777842E+0
2.091000E+0,1.778171E+0
2.092000E+0,1.776856E+0
2.093000E+0,1.776528E+0
2.094000E+0,1.776856E+0
2.095000E+0,1.777514E+0
2.096000E+0,1.776199E+0
2.097000E+0,1.775870E+0
2.098000E+0,1.776199E+0
2.099000E+0,1.775870E+0
2.100000E+0,1.775213E+0
2.101000E+0,1.774555E+0
2.102000E+0,1.773569E+0
2.103000E+0,1.774555E+0
2.104000E+0,1.773898E+0
2.105000E+0,1.774226E+0
2.106000E+0,1.773569E+0
2.107000E+0,1.772911E+0
2.108000E+0,1.773240E+0
2.109000E+0,1.772911E+0
2.110000E+0,1.771925E+0
2.111000E+0,1.771597E+0
2.112000E+0,1.771925E+0
2.113000E+0,1.771925E+0
2.114000E+0,1.771268E+0
2.115000E+0,1.770939E+0
2.116000E+0,1.770610E+0
2.117000E+0,1.770282E+0
2.118000E+0,1.770610E+0
2.119000E+0,1.770282E+0
2.120000E+0,1.769624E+0
2.121000E+0,1.769295E+0
2.122000E+0,1.768967E+0
2.123000E+0,1.768967E+0
2.124000E+0,1.768638E+0
2.125000E+0,1.767981E+0
2.126000E+0,1.767652E+0
2.127000E+0,1.767652E+0
2.128000E+0,1.767652E+0
2.129000E+0,1.766666E+0
2.130000E+0,1.766666E+0
2.131000E+0,1.766666E+0
2.132000E+0,1.766008E+0
2.133000E+0,1.766008E+0
2.134000E+0,1.765351E+0
2.135000E+0,1.765679E+0
2.136000E+0,1.764693E+0
2.137000E+0,1.765022E+0
2.138000E+0,1.763707E+0
2.139000E+0,1.763378E+0
2.140000E+0,1.763707E+0
2.141000E+0,1.762721E+0
2.142000E+0,1.763050E+0
2.143000E+0,1.763050E+0
2.144000E+0,1.762063E+0
2.145000E+0,1.761735E+0
2.146000E+0,1.762063E+0
2.147000E+0,1.761077E+0
2.148000E+0,1.761077E+0
2.149000E+0,1.761077E+0
2.150000E+0,1.760748E+0
2.151000E+0,1.760420E+0
2.152000E+0,1.760091E+0
2.153000E+0,1.759762E+0
2.154000E+0,1.758776E+0
2.155000E+0,1.758776E+0
2.156000E+0,1.759105E+0
2.157000E+0,1.758447E+0
2.158000E+0,1.758119E+0
2.159000E+0,1.757461E+0
2.160000E+0,1.757461E+0
2.161000E+0,1.757461E+0
2.162000E+0,1.756804E+0
2.163000E+0,1.756804E+0
2.164000E+0,1.756804E+0
2.165000E+0,1.755817E+0
2.166000E+0,1.756146E+0
2.167000E+0,1.755817E+0
2.168000E+0,1.754831E+0
2.169000E+0,1.755817E+0
2.170000E+0,1.754503E+0
2.171000E+0,1.753845E+0
2.172000E+0,1.752859E+0
2.173000E+0,1.753516E+0
2.174000E+0,1.753516E+0
2.175000E+0,1.752530E+0
2.176000E+0,1.751873E+0
2.177000E+0,1.752201E+0
2.178000E+0,1.751873E+0
2.179000E+0,1.752201E+0
2.180000E+0,1.751215E+0
2.181000E+0,1.750886E+0
2.182000E+0,1.750558E+0
2.183000E+0,1.750229E+0
2.184000E+0,1.750558E+0
2.185000E+0,1.749900E+0
2.186000E+0,1.749900E+0
2.187000E+0,1.748914E+0
2.188000E+0,1.748914E+0
2.189000E+0,1.748914E+0
2.190000E+0,1.748585E+0
2.191000E+0,1.748257E+0
2.192000E+0,1.747928E+0
2.193000E+0,1.747270E+0
2.194000E+0,1.747928E+0
2.195000E+0,1.747270E+0
2.196000E+0,1.746942E+0
2.197000E+0,1.746613E+0
2.198000E+0,1.745956E+0
2.199000E+0,1.746284E+0
2.200000E+0,1.745627E+0
2.201000E+0,1.745627E+0
2.202000E+0,1.745956E+0
2.203000E+0,1.744641E+0
2.204000E+0,1.744641E+0
2.205000E+0,1.744969E+0
2.206000E+0,1.743654E+0
2.207000E+0,1.743983E+0
2.208000E+0,1.743326E+0
2.209000E+0,1.742997E+0
2.210000E+0,1.742668E+0
2.211000E+0,1.742339E+0
2.212000E+0,1.742339E+0
2.213000E+0,1.742339E+0
2.214000E+0,1.741682E+0
2.215000E+0,1.741353E+0
2.216000E+0,1.740696E+0
2.217000E+0,1.740367E+0
2.218000E+0,1.740367E+0
2.219000E+0,1.739710E+0
2.220000E+0,1.739381E+0
2.221000E+0,1.739052E+0
2.222000E+0,1.739381E+0
2.223000E+0,1.739052E+0
2.224000E+0,1.739052E+0
2.225000E+0,1.738723E+0
2.226000E+0,1.738066E+0
2.227000E+0,1.737409E+0
2.228000E+0,1.737737E+0
2.229000E+0,1.737409E+0
2.230000E+0,1.736751E+0
2.231000E+0,1.736751E+0
2.232000E+0,1.737080E+0
2.233000E+0,1.736422E+0
2.234000E+0,1.734779E+0
2.235000E+0,1.735765E+0
2.236000E+0,1.735765E+0
2.237000E+0,1.734450E+0
2.238000E+0,1.734779E+0
2.239000E+0,1.734450E+0
2.240000E+0,1.734121E+0
2.241000E+0,1.734450E+0
2.242000E+0,1.734121E+0
2.243000E+0,1.733464E+0
2.244000E+0,1.733792E+0
2.245000E+0,1.732806E+0
2.246000E+0,1.732478E+0
2.247000E+0,1.733135E+0
2.248000E+0,1.732149E+0
2.249000E+0,1.732478E+0
2.250000E+0,1.732478E+0
2.251000E+0,1.732149E+0
2.252000E+0,1.731491E+0
2.253000E+0,1.731491E+0
2.254000E+0,1.731163E+0
2.255000E+0,1.731491E+0
2.256000E+0,1.730834E+0
2.257000E+0,1.730505E+0
2.258000E+0,1.730505E+0
2.259000E+0,1.730505E+0
2.260000E+0,1.729519E+0
2.261000E+0,1.729848E+0
2.262000E+0,1.728861E+0
2.263000E+0,1.729190E+0
2.264000E+0,1.729190E+0
2.265000E+0,1.729190E+0
2.266000E+0,1.727547E+0
2.267000E+0,1.727875E+0
2.268000E+0,1.727875E+0
2.269000E+0,1.727875E+0
2.270000E+0,1.728204E+0
2.271000E+0,1.727547E+0
2.272000E+0,1.726889E+0
2.273000E+0,1.726560E+0
2.274000E+0,1.726560E+0
2.275000E+0,1.726560E+0
2.276000E+0,1.726232E+0
2.277000E+0,1.725903E+0
2.278000E+0,1.725245E+0
2.279000E+0,1.725574E+0
2.280000E+0,1.725245E+0
2.281000E+0,1.725574E+0
2.282000E+0,1.725903E+0
2.283000E+0,1.725245E+0
2.284000E+0,1.725903E+0
2.285000E+0,1.724917E+0
2.286000E+0,1.724259E+0
2.287000E+0,1.723931E+0
2.288000E+0,1.724259E+0
2.289000E+0,1.723931E+0
2.290000E+0,1.724259E+0
2.291000E+0,1.724259E+0
2.292000E+0,1.723931E+0
2.293000E+0,1.722944E+0
2.294000E+0,1.723273E+0
2.295000E+0,1.723273E+0
2.296000E+0,1.723273E+0
2.297000E+0,1.722944E+0
2.298000E+0,1.723273E+0
2.299000E+0,1.722944E+0
2.300000E+0,1.722287E+0
2.301000E+0,1.722616E+0
2.302000E+0,1.721958E+0
2.303000E+0,1.721958E+0
2.304000E+0,1.722287E+0
2.305000E+0,1.721958E+0
2.306000E+0,1.721629E+0
2.307000E+0,1.722287E+0
2.308000E+0,1.721301E+0
2.309000E+0,1.720643E+0
2.310000E+0,1.721301E+0
2.311000E+0,1.721301E+0
2.312000E+0,1.720643E+0
2.313000E+0,1.720972E+0
2.314000E+0,1.721629E+0
2.315000E+0,1.720643E+0
2.316000E+0,1.721301E+0
2.317000E+0,1.720314E+0
2.318000E+0,1.720972E+0
2.319000E+0,1.720643E+0
2.320000E+0,1.719657E+0
2.321000E+0,1.719657E+0
2.322000E+0,1.719986E+0
2.323000E+0,1.719986E+0
2.324000E+0,1.719657E+0
2.325000E+0,1.719328E+0
2.326000E+0,1.719000E+0
2.327000E+0,1.719328E+0
2.328000E+0,1.718671E+0
2.329000E+0,1.718342E+0
2.330000E+0,1.719657E+0
2.331000E+0,1.719657E+0
2.332000E+0,1.719328E+0
2.333000E+0,1.719328E+0
2.334000E+0,1.719657E+0
2.335000E+0,1.719000E+0
2.336000E+0,1.718671E+0
2.337000E+0,1.719000E+0
2.338000E+0,1.719000E+0
2.339000E+0,1.719000E+0
2.340000E+0,1.718342E+0
2.341000E+0,1.718342E+0
2.342000E+0,1.718342E+0
2.343000E+0,1.718671E+0
2.344000E+0,1.718342E+0
2.345000E+0,1.718671E+0
2.346000E+0,1.718671E+0
2.347000E+0,1.718342E+0
2.348000E+0,1.718013E+0
2.349000E+0,1.718342E+0
2.350000E+0,1.718342E+0
2.351000E+0,1.717685E+0
2.352000E+0,1.718342E+0
2.353000E+0,1.718013E+0
2.354000E+0,1.718671E+0
2.355000E+0,1.718013E+0
2.356000E+0,1.718013E+0
2.357000E+0,1.717685E+0
2.358000E+0,1.716698E+0
2.359000E+0,1.718013E+0
2.360000E+0,1.717685E+0
2.361000E+0,1.717685E+0
2.362000E+0,1.717685E+0
2.363000E+0,1.718013E+0
2.364000E+0,1.718013E+0
2.365000E+0,1.718013E+0
2.366000E+0,1.718013E+0
2.367000E+0,1.717685E+0
2.368000E+0,1.717685E+0
2.369000E+0,1.718013E+0
2.370000E+0,1.718342E+0
2.371000E+0,1.717685E+0
2.372000E+0,1.717685E+0
2.373000E+0,1.717685E+0
2.374000E+0,1.717685E+0
2.375000E+0,1.717027E+0
2.376000E+0,1.718342E+0
2.377000E+0,1.717027E+0
2.378000E+0,1.717027E+0
2.379000E+0,1.717685E+0
2.380000E+0,1.717685E+0
2.381000E+0,1.718013E+0
2.382000E+0,1.717356E+0
2.383000E+0,1.717356E+0
2.384000E+0,1.717356E+0
2.385000E+0,1.717356E+0
2.386000E+0,1.718013E+0
2.387000E+0,1.717027E+0
2.388000E+0,1.717027E+0
2.389000E+0,1.717685E+0
2.390000E+0,1.717356E+0
2.391000E+0,1.717356E+0
2.392000E+0,1.717685E+0
2.393000E+0,1.717356E+0
2.394000E+0,1.717356E+0
2.395000E+0,1.717685E+0
2.396000E+0,1.717356E+0
2.397000E+0,1.718013E+0
2.398000E+0,1.717685E+0
2.399000E+0,1.717685E+0
2.400000E+0,1.717356E+0
2.401000E+0,1.719000E+0
2.402000E+0,1.718342E+0
2.403000E+0,1.717356E+0
2.404000E+0,1.718342E+0
2.405000E+0,1.717685E+0
2.406000E+0,1.717685E+0
2.407000E+0,1.718013E+0
2.408000E+0,1.718013E+0
2.409000E+0,1.717356E+0
2.410000E+0,1.718013E+0
2.411000E+0,1.717685E+0
2.412000E+0,1.718342E+0
2.413000E+0,1.718013E+0
2.414000E+0,1.717685E+0
2.415000E+0,1.717685E+0
2.416000E+0,1.717685E+0
2.417000E+0,1.717685E+0
2.418000E+0,1.718013E+0
2.419000E+0,1.718013E+0
2.420000E+0,1.718013E+0
2.421000E+0,1.718013E+0
2.422000E+0,1.718013E+0
2.423000E+0,1.718013E+0
2.424000E+0,1.717356E+0
2.425000E+0,1.717685E+0
2.426000E+0,1.717685E+0
2.427000E+0,1.717685E+0
2.428000E+0,1.717356E+0
2.429000E+0,1.717356E+0
2.430000E+0,1.717356E+0
2.431000E+0,1.717356E+0
2.432000E+0,1.717027E+0
2.433000E+0,1.717356E+0
2.434000E+0,1.717685E+0
2.435000E+0,1.717356E+0
2.436000E+0,1.717356E+0
2.437000E+0,1.717027E+0
2.438000E+0,1.717027E+0
2.439000E+0,1.717027E+0
2.440000E+0,1.716370E+0
2.441000E+0,1.716370E+0
2.442000E+0,1.717356E+0
2.443000E+0,1.716698E+0
2.444000E+0,1.716041E+0
2.445000E+0,1.715712E+0
2.446000E+0,1.716370E+0
2.447000E+0,1.716041E+0
2.448000E+0,1.715712E+0
2.449000E+0,1.715712E+0
2.450000E+0,1.716041E+0
2.451000E+0,1.716370E+0
2.452000E+0,1.715384E+0
2.453000E+0,1.715712E+0
2.454000E+0,1.715055E+0
2.455000E+0,1.714726E+0
2.456000E+0,1.714397E+0
2.457000E+0,1.715384E+0
2.458000E+0,1.714397E+0
2.459000E+0,1.713411E+0
2.460000E+0,1.713740E+0
2.461000E+0,1.714397E+0
2.462000E+0,1.714069E+0
2.463000E+0,1.713740E+0
2.464000E+0,1.713411E+0
2.465000E+0,1.713411E+0
2.466000E+0,1.713411E+0
2.467000E+0,1.712754E+0
2.468000E+0,1.712425E+0
2.469000E+0,1.712425E+0
2.470000E+0,1.712096E+0
2.471000E+0,1.711439E+0
2.472000E+0,1.711767E+0
2.473000E+0,1.712096E+0
2.474000E+0,1.711767E+0
2.475000E+0,1.711110E+0
2.476000E+0,1.710124E+0
2.477000E+0,1.710124E+0
2.478000E+0,1.709466E+0
2.479000E+0,1.710453E+0
2.480000E+0,1.709466E+0
2.481000E+0,1.709466E+0
2.482000E+0,1.708809E+0
2.483000E+0,1.708480E+0
2.484000E+0,1.708480E+0
2.485000E+0,1.707494E+0
2.486000E+0,1.707494E+0
2.487000E+0,1.706836E+0
2.488000E+0,1.706508E+0
2.489000E+0,1.706508E+0
2.490000E+0,1.706179E+0
2.491000E+0,1.705193E+0
2.492000E+0,1.704864E+0
2.493000E+0,1.704207E+0
2.494000E+0,1.703549E+0
2.495000E+0,1.703549E+0
2.496000E+0,1.703878E+0
2.497000E+0,1.702563E+0
2.498000E+0,1.702234E+0
2.499000E+0,1.701248E+0
2.500000E+0,1.701248E+0
2.501000E+0,1.700591E+0
2.502000E+0,1.700591E+0
2.503000E+0,1.699276E+0
2.504000E+0,1.699276E+0
2.505000E+0,1.698618E+0
2.506000E+0,1.697632E+0
2.507000E+0,1.697632E+0
2.508000E+0,1.696975E+0
2.509000E+0,1.696975E+0
2.510000E+0,1.695988E+0
2.511000E+0,1.695331E+0
2.512000E+0,1.694345E+0
2.513000E+0,1.694016E+0
2.514000E+0,1.692701E+0
2.515000E+0,1.692372E+0
2.516000E+0,1.692044E+0
2.517000E+0,1.691057E+0
2.518000E+0,1.690729E+0
2.519000E+0,1.689742E+0
2.520000E+0,1.689085E+0
2.521000E+0,1.688099E+0
2.522000E+0,1.687441E+0
2.523000E+0,1.687441E+0
2.524000E+0,1.685798E+0
2.525000E+0,1.686126E+0
2.526000E+0,1.684154E+0
2.527000E+0,1.683825E+0
2.528000E+0,1.683497E+0
2.529000E+0,1.682182E+0
2.530000E+0,1.680867E+0
2.531000E+0,1.680538E+0
2.532000E+0,1.680538E+0
2.533000E+0,1.679552E+0
2.534000E+0,1.677908E+0
2.535000E+0,1.677251E+0
2.536000E+0,1.676922E+0
2.537000E+0,1.675936E+0
2.538000E+0,1.674950E+0
2.539000E+0,1.673306E+0
2.540000E+0,1.673306E+0
2.541000E+0,1.673306E+0
2.542000E+0,1.671662E+0
2.543000E+0,1.670347E+0
2.544000E+0,1.669690E+0
2.545000E+0,1.669361E+0
2.546000E+0,1.667717E+0
2.547000E+0,1.667389E+0
2.548000E+0,1.666074E+0
2.549000E+0,1.665416E+0
2.550000E+0,1.664759E+0
2.551000E+0,1.663444E+0
2.552000E+0,1.663444E+0
2.553000E+0,1.661800E+0
2.554000E+0,1.660485E+0
2.555000E+0,1.659828E+0
2.556000E+0,1.658842E+0
2.557000E+0,1.657856E+0
2.558000E+0,1.657198E+0
2.559000E+0,1.654240E+0
2.560000E+0,1.654568E+0
2.561000E+0,1.654240E+0
2.562000E+0,1.652596E+0
2.563000E+0,1.651610E+0
2.564000E+0,1.651281E+0
2.565000E+0,1.649309E+0
2.566000E+0,1.648980E+0
2.567000E+0,1.647665E+0
2.568000E+0,1.647007E+0
2.569000E+0,1.645692E+0
2.570000E+0,1.645035E+0
2.571000E+0,1.643391E+0
2.572000E+0,1.642405E+0
2.573000E+0,1.641090E+0
2.574000E+0,1.640104E+0
2.575000E+0,1.639775E+0
2.576000E+0,1.638132E+0
2.577000E+0,1.637145E+0
2.578000E+0,1.635831E+0
2.579000E+0,1.634844E+0
2.580000E+0,1.634187E+0
2.581000E+0,1.632872E+0
2.582000E+0,1.631886E+0
2.583000E+0,1.630571E+0
2.584000E+0,1.629913E+0
2.585000E+0,1.628270E+0
2.586000E+0,1.627284E+0
2.587000E+0,1.625969E+0
2.588000E+0,1.624982E+0
2.589000E+0,1.623668E+0
2.590000E+0,1.623339E+0
2.591000E+0,1.621695E+0
2.592000E+0,1.620709E+0
2.593000E+0,1.619065E+0
2.594000E+0,1.617750E+0
2.595000E+0,1.617422E+0
2.596000E+0,1.615449E+0
2.597000E+0,1.615120E+0
2.598000E+0,1.614463E+0
2.599000E+0,1.613477E+0
2.600000E+0,1.611833E+0
2.601000E+0,1.610518E+0
2.602000E+0,1.609532E+0
2.603000E+0,1.608217E+0
2.604000E+0,1.607560E+0
2.605000E+0,1.606245E+0
2.606000E+0,1.605259E+0
2.607000E+0,1.604601E+0
2.608000E+0,1.602300E+0
2.609000E+0,1.601971E+0
2.610000E+0,1.600656E+0
2.611000E+0,1.599670E+0
2.612000E+0,1.598355E+0
2.613000E+0,1.597369E+0
2.614000E+0,1.596054E+0
2.615000E+0,1.595397E+0
2.616000E+0,1.593753E+0
2.617000E+0,1.592767E+0
2.618000E+0,1.592109E+0
2.619000E+0,1.590794E+0
2.620000E+0,1.589479E+0
2.621000E+0,1.588493E+0
2.622000E+0,1.586850E+0
2.623000E+0,1.586192E+0
2.624000E+0,1.585535E+0
2.625000E+0,1.583891E+0
2.626000E+0,1.583234E+0
2.627000E+0,1.581261E+0
2.628000E+0,1.579618E+0
2.629000E+0,1.579289E+0
2.630000E+0,1.578303E+0
2.631000E+0,1.576659E+0
2.632000E+0,1.576001E+0
2.633000E+0,1.575344E+0
2.634000E+0,1.574029E+0
2.635000E+0,1.573043E+0
2.636000E+0,1.572057E+0
2.637000E+0,1.571399E+0
2.638000E+0,1.569427E+0
2.639000E+0,1.568112E+0
2.640000E+0,1.567454E+0
2.641000E+0,1.566797E+0
2.642000E+0,1.565482E+0
2.643000E+0,1.563838E+0
2.644000E+0,1.562852E+0
2.645000E+0,1.561866E+0
2.646000E+0,1.561209E+0
2.647000E+0,1.559894E+0
2.648000E+0,1.558907E+0
2.649000E+0,1.557593E+0
2.650000E+0,1.556606E+0
2.651000E+0,1.556606E+0
2.652000E+0,1.554634E+0
2.653000E+0,1.553976E+0
2.654000E+0,1.553319E+0
2.655000E+0,1.552004E+0
2.656000E+0,1.551018E+0
2.657000E+0,1.549703E+0
2.658000E+0,1.549046E+0
2.659000E+0,1.547731E+0
2.660000E+0,1.547402E+0
2.661000E+0,1.545429E+0
2.662000E+0,1.544772E+0
2.663000E+0,1.544115E+0
2.664000E+0,1.543457E+0
2.665000E+0,1.542471E+0
2.666000E+0,1.541813E+0
2.667000E+0,1.540170E+0
2.668000E+0,1.539184E+0
2.669000E+0,1.538855E+0
2.670000E+0,1.537540E+0
2.671000E+0,1.536554E+0
2.672000E+0,1.535239E+0
2.673000E+0,1.534253E+0
2.674000E+0,1.532938E+0
2.675000E+0,1.531952E+0
2.676000E+0,1.531623E+0
2.677000E+0,1.530637E+0
2.678000E+0,1.529650E+0
2.679000E+0,1.528664E+0
2.680000E+0,1.528007E+0
2.681000E+0,1.527021E+0
2.682000E+0,1.525706E+0
2.683000E+0,1.525377E+0
2.684000E+0,1.524391E+0
2.685000E+0,1.524062E+0
2.686000E+0,1.522747E+0
2.687000E+0,1.521432E+0
2.688000E+0,1.521103E+0
2.689000E+0,1.520117E+0
2.690000E+0,1.518802E+0
2.691000E+0,1.517816E+0
2.692000E+0,1.516830E+0
2.693000E+0,1.515844E+0
2.694000E+0,1.515186E+0
2.695000E+0,1.514857E+0
2.696000E+0,1.513871E+0
2.697000E+0,1.512556E+0
2.698000E+0,1.512556E+0
2.699000E+0,1.510913E+0
2.700000E+0,1.510584E+0
2.701000E+0,1.509598E+0
2.702000E+0,1.508940E+0
2.703000E+0,1.507625E+0
2.704000E+0,1.507625E+0
2.705000E+0,1.505653E+0
2.706000E+0,1.504996E+0
2.707000E+0,1.504996E+0
2.708000E+0,1.503681E+0
2.709000E+0,1.503023E+0
2.710000E+0,1.502037E+0
2.711000E+0,1.501051E+0
2.712000E+0,1.501380E+0
2.713000E+0,1.500722E+0
2.714000E+0,1.499078E+0
2.715000E+0,1.498421E+0
2.716000E+0,1.497435E+0
2.717000E+0,1.496777E+0
2.718000E+0,1.497106E+0
2.719000E+0,1.496120E+0
2.720000E+0,1.495134E+0
2.721000E+0,1.493819E+0
2.722000E+0,1.493161E+0
2.723000E+0,1.493161E+0
2.724000E+0,1.491846E+0
2.725000E+0,1.491189E+0
2.726000E+0,1.490531E+0
2.727000E+0,1.489874E+0
2.728000E+0,1.488888E+0
2.729000E+0,1.488559E+0
2.730000E+0,1.488230E+0
2.731000E+0,1.487244E+0
2.732000E+0,1.486587E+0
2.733000E+0,1.485600E+0
2.734000E+0,1.484943E+0
2.735000E+0,1.484614E+0
2.736000E+0,1.484285E+0
2.737000E+0,1.483299E+0
2.738000E+0,1.482313E+0
2.739000E+0,1.481327E+0
2.740000E+0,1.480998E+0
2.741000E+0,1.480669E+0
2.742000E+0,1.479683E+0
2.743000E+0,1.479683E+0
2.744000E+0,1.478368E+0
2.745000E+0,1.478697E+0
2.746000E+0,1.477382E+0
2.747000E+0,1.476725E+0
2.748000E+0,1.476396E+0
2.749000E+0,1.475738E+0
2.750000E+0,1.475081E+0
2.751000E+0,1.474752E+0
2.752000E+0,1.474424E+0
2.753000E+0,1.473437E+0
2.754000E+0,1.472451E+0
2.755000E+0,1.472451E+0
2.756000E+0,1.472122E+0
2.757000E+0,1.471136E+0
2.758000E+0,1.470479E+0
2.759000E+0,1.469493E+0
2.760000E+0,1.469493E+0
2.761000E+0,1.468835E+0
2.762000E+0,1.468506E+0
2.763000E+0,1.467520E+0
2.764000E+0,1.467191E+0
2.765000E+0,1.466534E+0
2.766000E+0,1.466205E+0
2.767000E+0,1.466863E+0
2.768000E+0,1.464890E+0
2.769000E+0,1.464890E+0
2.770000E+0,1.463904E+0
2.771000E+0,1.463575E+0
2.772000E+0,1.463575E+0
2.773000E+0,1.463247E+0
2.774000E+0,1.462261E+0
2.775000E+0,1.461932E+0
2.776000E+0,1.460946E+0
2.777000E+0,1.460288E+0
2.778000E+0,1.459959E+0
2.779000E+0,1.459959E+0
2.780000E+0,1.458973E+0
2.781000E+0,1.457987E+0
2.782000E+0,1.458316E+0
2.783000E+0,1.458644E+0
2.784000E+0,1.457001E+0
2.785000E+0,1.457330E+0
2.786000E+0,1.456672E+0
2.787000E+0,1.456015E+0
2.788000E+0,1.455686E+0
2.789000E+0,1.455028E+0
2.790000E+0,1.454700E+0
2.791000E+0,1.454371E+0
2.792000E+0,1.454042E+0
2.793000E+0,1.453056E+0
2.794000E+0,1.451084E+0
2.795000E+0,1.452727E+0
2.796000E+0,1.452399E+0
2.797000E+0,1.451084E+0
2.798000E+0,1.451084E+0
2.799000E+0,1.450426E+0
2.800000E+0,1.450097E+0
2.801000E+0,1.449440E+0
2.802000E+0,1.449769E+0
2.803000E+0,1.448125E+0
2.804000E+0,1.449440E+0
2.805000E+0,1.448125E+0
2.806000E+0,1.447796E+0
2.807000E+0,1.447796E+0
2.808000E+0,1.447139E+0
2.809000E+0,1.446810E+0
2.810000E+0,1.446810E+0
2.811000E+0,1.446481E+0
2.812000E+0,1.446481E+0
2.813000E+0,1.445824E+0
2.814000E+0,1.444838E+0
2.815000E+0,1.444509E+0
2.816000E+0,1.444509E+0
2.817000E+0,1.444838E+0
2.818000E+0,1.444180E+0
2.819000E+0,1.443852E+0
2.820000E+0,1.443852E+0
2.821000E+0,1.443194E+0
2.822000E+0,1.442208E+0
2.823000E+0,1.442208E+0
2.824000E+0,1.441879E+0
2.825000E+0,1.441550E+0
2.826000E+0,1.441222E+0
2.827000E+0,1.440893E+0
2.828000E+0,1.439578E+0
2.829000E+0,1.440893E+0
2.830000E+0,1.440236E+0
2.831000E+0,1.439578E+0
2.832000E+0,1.439578E+0
2.833000E+0,1.438592E+0
2.834000E+0,1.438921E+0
2.835000E+0,1.438921E+0
2.836000E+0,1.438592E+0
2.837000E+0,1.438592E+0
2.838000E+0,1.437934E+0
2.839000E+0,1.437277E+0
2.840000E+0,1.436948E+0
2.841000E+0,1.437606E+0
2.842000E+0,1.435962E+0
2.843000E+0,1.436291E+0
2.844000E+0,1.436291E+0
2.845000E+0,1.436291E+0
2.846000E+0,1.435633E+0
2.847000E+0,1.435633E+0
2.848000E+0,1.435633E+0
2.849000E+0,1.435633E+0
2.850000E+0,1.434976E+0
2.851000E+0,1.435305E+0
2.852000E+0,1.434647E+0
2.853000E+0,1.433990E+0
2.854000E+0,1.434647E+0
2.855000E+0,1.433661E+0
2.856000E+0,1.433661E+0
2.857000E+0,1.433661E+0
2.858000E+0,1.432675E+0
2.859000E+0,1.432675E+0
2.860000E+0,1.433332E+0
2.861000E+0,1.432675E+0
2.862000E+0,1.433332E+0
2.863000E+0,1.432675E+0
2.864000E+0,1.432346E+0
2.865000E+0,1.431689E+0
2.866000E+0,1.431689E+0
2.867000E+0,1.432017E+0
2.868000E+0,1.431689E+0
2.869000E+0,1.431360E+0
2.870000E+0,1.431031E+0
2.871000E+0,1.431360E+0
2.872000E+0,1.430702E+0
2.873000E+0,1.430702E+0
2.874000E+0,1.431031E+0
2.875000E+0,1.430374E+0
2.876000E+0,1.430374E+0
2.877000E+0,1.429716E+0
2.878000E+0,1.430045E+0
2.879000E+0,1.430702E+0
2.880000E+0,1.430374E+0
2.881000E+0,1.429716E+0
2.882000E+0,1.430045E+0
2.883000E+0,1.429716E+0
2.884000E+0,1.429716E+0
2.885000E+0,1.429387E+0
2.886000E+0,1.429059E+0
2.887000E+0,1.429059E+0
2.888000E+0,1.428401E+0
2.889000E+0,1.428730E+0
2.890000E+0,1.427415E+0
2.891000E+0,1.429059E+0
2.892000E+0,1.428401E+0
2.893000E+0,1.428072E+0
2.894000E+0,1.428401E+0
2.895000E+0,1.428401E+0
2.896000E+0,1.428401E+0
2.897000E+0,1.427415E+0
2.898000E+0,1.428072E+0
2.899000E+0,1.428401E+0
2.900000E+0,1.428401E+0
2.901000E+0,1.428072E+0
2.902000E+0,1.427744E+0
2.903000E+0,1.427744E+0
2.904000E+0,1.427086E+0
2.905000E+0,1.427415E+0
2.906000E+0,1.427415E+0
2.907000E+0,1.427744E+0
2.908000E+0,1.427415E+0
2.909000E+0,1.427415E+0
2.910000E+0,1.426758E+0
2.911000E+0,1.427415E+0
2.912000E+0,1.427415E+0
2.913000E+0,1.427415E+0
2.914000E+0,1.427744E+0
2.915000E+0,1.427744E+0
2.916000E+0,1.427744E+0
2.917000E+0,1.427415E+0
2.918000E+0,1.427086E+0
2.919000E+0,1.427415E+0
2.920000E+0,1.427086E+0
2.921000E+0,1.427415E+0
2.922000E+0,1.427086E+0
2.923000E+0,1.427415E+0
2.924000E+0,1.427086E+0
2.925000E+0,1.427744E+0
2.926000E+0,1.427086E+0
2.927000E+0,1.426429E+0
2.928000E+0,1.427415E+0
2.929000E+0,1.427415E+0
2.930000E+0,1.427744E+0
2.931000E+0,1.427086E+0
2.932000E+0,1.427415E+0
2.933000E+0,1.427744E+0
2.934000E+0,1.427415E+0
2.935000E+0,1.427744E+0
2.936000E+0,1.427086E+0
2.937000E+0,1.427086E+0
2.938000E+0,1.427086E+0
2.939000E+0,1.427744E+0
2.940000E+0,1.427744E+0
2.941000E+0,1.427744E+0
2.942000E+0,1.427415E+0
2.943000E+0,1.428072E+0
2.944000E+0,1.428072E+0
2.945000E+0,1.428072E+0
2.946000E+0,1.428072E+0
2.947000E+0,1.429387E+0
2.948000E+0,1.428401E+0
2.949000E+0,1.429059E+0
2.950000E+0,1.428730E+0
2.951000E+0,1.428730E+0
2.952000E+0,1.428401E+0
2.953000E+0,1.428730E+0
2.954000E+0,1.428730E+0
2.955000E+0,1.429059E+0
2.956000E+0,1.428401E+0
2.957000E+0,1.428730E+0
2.958000E+0,1.429387E+0
2.959000E+0,1.429059E+0
2.960000E+0,1.429387E+0
2.961000E+0,1.429387E+0
2.962000E+0,1.429716E+0
2.963000E+0,1.429387E+0
2.964000E+0,1.429387E+0
2.965000E+0,1.429387E+0
2.966000E+0,1.430374E+0
2.967000E+0,1.431031E+0
2.968000E+0,1.430374E+0
2.969000E+0,1.430374E+0
2.970000E+0,1.430702E+0
2.971000E+0,1.430045E+0
2.972000E+0,1.431360E+0
2.973000E+0,1.431360E+0
2.974000E+0,1.431360E+0
2.975000E+0,1.431360E+0
2.976000E+0,1.431689E+0
2.977000E+0,1.431689E+0
2.978000E+0,1.431689E+0
2.979000E+0,1.432017E+0
2.980000E+0,1.433003E+0
2.981000E+0,1.433332E+0
2.982000E+0,1.433003E+0
2.983000E+0,1.433003E+0
2.984000E+0,1.433332E+0
2.985000E+0,1.433661E+0
2.986000E+0,1.433990E+0
2.987000E+0,1.433990E+0
2.988000E+0,1.433661E+0
2.989000E+0,1.434318E+0
2.990000E+0,1.434647E+0
2.991000E+0,1.434318E+0
2.992000E+0,1.434318E+0
2.993000E+0,1.434647E+0
2.994000E+0,1.434647E+0
2.995000E+0,1.435633E+0
2.996000E+0,1.435962E+0
2.997000E+0,1.435962E+0
2.998000E+0,1.435962E+0
2.999000E+0,1.436948E+0
3.000000E+0,1.436948E+0
3.001000E+0,1.436619E+0
3.002000E+0,1.437934E+0
3.003000E+0,1.437934E+0
3.004000E+0,1.437606E+0
3.005000E+0,1.437606E+0
3.006000E+0,1.437934E+0
3.007000E+0,1.438263E+0
3.008000E+0,1.438921E+0
3.009000E+0,1.438921E+0
3.010000E+0,1.438921E+0
3.011000E+0,1.439578E+0
3.012000E+0,1.440236E+0
3.013000E+0,1.440564E+0
3.014000E+0,1.440893E+0
3.015000E+0,1.441222E+0
3.016000E+0,1.442537E+0
3.017000E+0,1.441550E+0
3.018000E+0,1.441879E+0
3.019000E+0,1.442537E+0
3.020000E+0,1.442865E+0
3.021000E+0,1.443523E+0
3.022000E+0,1.443523E+0
3.023000E+0,1.444180E+0
3.024000E+0,1.444509E+0
3.025000E+0,1.444838E+0
3.026000E+0,1.444838E+0
3.027000E+0,1.445166E+0
3.028000E+0,1.445824E+0
3.029000E+0,1.446153E+0
3.030000E+0,1.446153E+0
3.031000E+0,1.447139E+0
3.032000E+0,1.447468E+0
3.033000E+0,1.448454E+0
3.034000E+0,1.448783E+0
3.035000E+0,1.449440E+0
3.036000E+0,1.449440E+0
3.037000E+0,1.449111E+0
3.038000E+0,1.449769E+0
3.039000E+0,1.450755E+0
3.040000E+0,1.450755E+0
3.041000E+0,1.451412E+0
3.042000E+0,1.452070E+0
3.043000E+0,1.451741E+0
3.044000E+0,1.452399E+0
3.045000E+0,1.452727E+0
3.046000E+0,1.453385E+0
3.047000E+0,1.453713E+0
3.048000E+0,1.454371E+0
3.049000E+0,1.455028E+0
3.050000E+0,1.455357E+0
3.051000E+0,1.456343E+0
3.052000E+0,1.457001E+0
3.053000E+0,1.455686E+0
3.054000E+0,1.456343E+0
3.055000E+0,1.457330E+0
3.056000E+0,1.457987E+0
3.057000E+0,1.458973E+0
3.058000E+0,1.458973E+0
3.059000E+0,1.459631E+0
3.060000E+0,1.460617E+0
3.061000E+0,1.460946E+0
3.062000E+0,1.461603E+0
3.063000E+0,1.461932E+0
3.064000E+0,1.463575E+0
3.065000E+0,1.463904E+0
3.066000E+0,1.463575E+0
3.067000E+0,1.464890E+0
3.068000E+0,1.465219E+0
3.069000E+0,1.464890E+0
3.070000E+0,1.465548E+0
3.071000E+0,1.466534E+0
3.072000E+0,1.467191E+0
3.073000E+0,1.466863E+0
3.074000E+0,1.468178E+0
3.075000E+0,1.468506E+0
3.076000E+0,1.469164E+0
3.077000E+0,1.470150E+0
3.078000E+0,1.470808E+0
3.079000E+0,1.471465E+0
3.080000E+0,1.471794E+0
3.081000E+0,1.472780E+0
3.082000E+0,1.473766E+0
3.083000E+0,1.473109E+0
3.084000E+0,1.474424E+0
3.085000E+0,1.475410E+0
3.086000E+0,1.475410E+0
3.087000E+0,1.476396E+0
3.088000E+0,1.476725E+0
3.089000E+0,1.477382E+0
3.090000E+0,1.478040E+0
3.091000E+0,1.478697E+0
3.092000E+0,1.479026E+0
3.093000E+0,1.480012E+0
3.094000E+0,1.480669E+0
3.095000E+0,1.481327E+0
3.096000E+0,1.482642E+0
3.097000E+0,1.483299E+0
3.098000E+0,1.483628E+0
3.099000E+0,1.484285E+0
3.100000E+0,1.484943E+0
3.101000E+0,1.484943E+0
3.102000E+0,1.486258E+0
3.103000E+0,1.486258E+0
3.104000E+0,1.487244E+0
3.105000E+0,1.487573E+0
3.106000E+0,1.488230E+0
3.107000E+0,1.489545E+0
3.108000E+0,1.489874E+0
3.109000E+0,1.490203E+0
3.110000E+0,1.491518E+0
3.111000E+0,1.491846E+0
3.112000E+0,1.492504E+0
3.113000E+0,1.493490E+0
3.114000E+0,1.494147E+0
3.115000E+0,1.494476E+0
3.116000E+0,1.496120E+0
3.117000E+0,1.496777E+0
3.118000E+0,1.497106E+0
3.119000E+0,1.497763E+0
3.120000E+0,1.498421E+0
3.121000E+0,1.498750E+0
3.122000E+0,1.500065E+0
3.123000E+0,1.500722E+0
3.124000E+0,1.501708E+0
3.125000E+0,1.501708E+0
3.126000E+0,1.502366E+0
3.127000E+0,1.503352E+0
3.128000E+0,1.504667E+0
3.129000E+0,1.504667E+0
3.130000E+0,1.505653E+0
3.131000E+0,1.506639E+0
3.132000E+0,1.507297E+0
3.133000E+0,1.507625E+0
3.134000E+0,1.508283E+0
3.135000E+0,1.509927E+0
3.136000E+0,1.510255E+0
3.137000E+0,1.511241E+0
3.138000E+0,1.511899E+0
3.139000E+0,1.512228E+0
3.140000E+0,1.512228E+0
3.141000E+0,1.513871E+0
3.142000E+0,1.514529E+0
3.143000E+0,1.514857E+0
3.144000E+0,1.515844E+0
3.145000E+0,1.517159E+0
3.146000E+0,1.517487E+0
3.147000E+0,1.518474E+0
3.148000E+0,1.518474E+0
3.149000E+0,1.519788E+0
3.150000E+0,1.520117E+0
3.151000E+0,1.521432E+0
3.152000E+0,1.522090E+0
3.153000E+0,1.522747E+0
3.154000E+0,1.522747E+0
3.155000E+0,1.524719E+0
3.156000E+0,1.524719E+0
3.157000E+0,1.526363E+0
3.158000E+0,1.526363E+0
3.159000E+0,1.527021E+0
3.160000E+0,1.528007E+0
3.161000E+0,1.528664E+0
3.162000E+0,1.529979E+0
3.163000E+0,1.530637E+0
3.164000E+0,1.531623E+0
3.165000E+0,1.531952E+0
3.166000E+0,1.532609E+0
3.167000E+0,1.533595E+0
3.168000E+0,1.534910E+0
3.169000E+0,1.535896E+0
3.170000E+0,1.535896E+0
3.171000E+0,1.536882E+0
3.172000E+0,1.537211E+0
3.173000E+0,1.538526E+0
3.174000E+0,1.539184E+0
3.175000E+0,1.539841E+0
3.176000E+0,1.540827E+0
3.177000E+0,1.540499E+0
3.178000E+0,1.542142E+0
3.179000E+0,1.542800E+0
3.180000E+0,1.544115E+0
3.181000E+0,1.544772E+0
3.182000E+0,1.546087E+0
3.183000E+0,1.546087E+0
3.184000E+0,1.547073E+0
3.185000E+0,1.548059E+0
3.186000E+0,1.549046E+0
3.187000E+0,1.549703E+0
3.188000E+0,1.549703E+0
3.189000E+0,1.551675E+0
3.190000E+0,1.552662E+0
3.191000E+0,1.552004E+0
3.192000E+0,1.553648E+0
3.193000E+0,1.554305E+0
3.194000E+0,1.554963E+0
3.195000E+0,1.555620E+0
3.196000E+0,1.557264E+0
3.197000E+0,1.557264E+0
3.198000E+0,1.558907E+0
3.199000E+0,1.559236E+0
3.200000E+0,1.560551E+0
3.201000E+0,1.559894E+0
3.202000E+0,1.561537E+0
3.203000E+0,1.562195E+0
3.204000E+0,1.562852E+0
3.205000E+0,1.564496E+0
3.206000E+0,1.564496E+0
3.207000E+0,1.565153E+0
3.208000E+0,1.566468E+0
3.209000E+0,1.567454E+0
3.210000E+0,1.568441E+0
3.211000E+0,1.568769E+0
3.212000E+0,1.569756E+0
3.213000E+0,1.571071E+0
3.214000E+0,1.571728E+0
3.215000E+0,1.572057E+0
3.216000E+0,1.573372E+0
3.217000E+0,1.574029E+0
3.218000E+0,1.575344E+0
3.219000E+0,1.576988E+0
3.220000E+0,1.576988E+0
3.221000E+0,1.577645E+0
3.222000E+0,1.578631E+0
3.223000E+0,1.578960E+0
3.224000E+0,1.580275E+0
3.225000E+0,1.581590E+0
3.226000E+0,1.581590E+0
3.227000E+0,1.582576E+0
3.228000E+0,1.583562E+0
3.229000E+0,1.584548E+0
3.230000E+0,1.585535E+0
3.231000E+0,1.586192E+0
3.232000E+0,1.586521E+0
3.233000E+0,1.588165E+0
3.234000E+0,1.589479E+0
3.235000E+0,1.589808E+0
3.236000E+0,1.591123E+0
3.237000E+0,1.592767E+0
3.238000E+0,1.592438E+0
3.239000E+0,1.593424E+0
3.240000E+0,1.594410E+0
3.241000E+0,1.596054E+0
3.242000E+0,1.596054E+0
3.243000E+0,1.597040E+0
3.244000E+0,1.598355E+0
3.245000E+0,1.599341E+0
3.246000E+0,1.600328E+0
3.247000E+0,1.601314E+0
3.248000E+0,1.602300E+0
3.249000E+0,1.602629E+0
3.250000E+0,1.604272E+0
3.251000E+0,1.604930E+0
3.252000E+0,1.605916E+0
3.253000E+0,1.607231E+0
3.254000E+0,1.607560E+0
3.255000E+0,1.608546E+0
3.256000E+0,1.609861E+0
3.257000E+0,1.610847E+0
3.258000E+0,1.611504E+0
3.259000E+0,1.611833E+0
3.260000E+0,1.613477E+0
3.261000E+0,1.614463E+0
3.262000E+0,1.615120E+0
3.263000E+0,1.616764E+0
3.264000E+0,1.616764E+0
3.265000E+0,1.618408E+0
3.266000E+0,1.619065E+0
3.267000E+0,1.620380E+0
3.268000E+0,1.620380E+0
3.269000E+0,1.622024E+0
3.270000E+0,1.622681E+0
3.271000E+0,1.623996E+0
3.272000E+0,1.625311E+0
3.273000E+0,1.626297E+0
3.274000E+0,1.627612E+0
3.275000E+0,1.628598E+0
3.276000E+0,1.629913E+0
3.277000E+0,1.630900E+0
3.278000E+0,1.631228E+0
3.279000E+0,1.632872E+0
3.280000E+0,1.633858E+0
3.281000E+0,1.635502E+0
3.282000E+0,1.635831E+0
3.283000E+0,1.636817E+0
3.284000E+0,1.637803E+0
3.285000E+0,1.639447E+0
3.286000E+0,1.640104E+0
3.287000E+0,1.641748E+0
3.288000E+0,1.642076E+0
3.289000E+0,1.643391E+0
3.290000E+0,1.643720E+0
3.291000E+0,1.645692E+0
3.292000E+0,1.646679E+0
3.293000E+0,1.647665E+0
3.294000E+0,1.648651E+0
3.295000E+0,1.649966E+0
3.296000E+0,1.651610E+0
3.297000E+0,1.650952E+0
3.298000E+0,1.652925E+0
3.299000E+0,1.654897E+0
3.300000E+0,1.654240E+0
3.301000E+0,1.656541E+0
3.302000E+0,1.658184E+0
3.303000E+0,1.658842E+0
3.304000E+0,1.659499E+0
3.305000E+0,1.661472E+0
3.306000E+0,1.662458E+0
3.307000E+0,1.664430E+0
3.308000E+0,1.665088E+0
3.309000E+0,1.665088E+0
3.310000E+0,1.667060E+0
3.311000E+0,1.668046E+0
3.312000E+0,1.669361E+0
3.313000E+0,1.670676E+0
3.314000E+0,1.671991E+0
3.315000E+0,1.672648E+0
3.316000E+0,1.674292E+0
3.317000E+0,1.674950E+0
3.318000E+0,1.676922E+0
3.319000E+0,1.677251E+0
3.320000E+0,1.678894E+0
3.321000E+0,1.678894E+0
3.322000E+0,1.681195E+0
3.323000E+0,1.681524E+0
3.324000E+0,1.682839E+0
3.325000E+0,1.684154E+0
3.326000E+0,1.685469E+0
3.327000E+0,1.686126E+0
3.328000E+0,1.687770E+0
3.329000E+0,1.689085E+0
3.330000E+0,1.689742E+0
3.331000E+0,1.691386E+0
3.332000E+0,1.692372E+0
3.333000E+0,1.694016E+0
3.334000E+0,1.695988E+0
3.335000E+0,1.696646E+0
3.336000E+0,1.697961E+0
3.337000E+0,1.698289E+0
3.338000E+0,1.699276E+0
3.339000E+0,1.700919E+0
3.340000E+0,1.701906E+0
3.341000E+0,1.703220E+0
3.342000E+0,1.704207E+0
3.343000E+0,1.705193E+0
3.344000E+0,1.706508E+0
3.345000E+0,1.708151E+0
3.346000E+0,1.708809E+0
3.347000E+0,1.710124E+0
3.348000E+0,1.711767E+0
3.349000E+0,1.712096E+0
3.350000E+0,1.713740E+0
3.351000E+0,1.716370E+0
3.352000E+0,1.715712E+0
3.353000E+0,1.717027E+0
3.354000E+0,1.718671E+0
3.355000E+0,1.719986E+0
3.356000E+0,1.719986E+0
3.357000E+0,1.721629E+0
3.358000E+0,1.722944E+0
3.359000E+0,1.723602E+0
3.360000E+0,1.724588E+0
3.361000E+0,1.725574E+0
3.362000E+0,1.727218E+0
3.363000E+0,1.727875E+0
3.364000E+0,1.729848E+0
3.365000E+0,1.730505E+0
3.366000E+0,1.732149E+0
3.367000E+0,1.732806E+0
3.368000E+0,1.732806E+0
3.369000E+0,1.734121E+0
3.370000E+0,1.736422E+0
3.371000E+0,1.737080E+0
3.372000E+0,1.737409E+0
3.373000E+0,1.738723E+0
3.374000E+0,1.740367E+0
3.375000E+0,1.741025E+0
3.376000E+0,1.742011E+0
3.377000E+0,1.743326E+0
3.378000E+0,1.744312E+0
3.379000E+0,1.744969E+0
3.380000E+0,1.746613E+0
3.381000E+0,1.746284E+0
3.382000E+0,1.748585E+0
3.383000E+0,1.749243E+0
3.384000E+0,1.750229E+0
3.385000E+0,1.750886E+0
3.386000E+0,1.752201E+0
3.387000E+0,1.752859E+0
3.388000E+0,1.753845E+0
3.389000E+0,1.754831E+0
3.390000E+0,1.755489E+0
3.391000E+0,1.756475E+0
3.392000E+0,1.757132E+0
3.393000E+0,1.758119E+0
3.394000E+0,1.758776E+0
3.395000E+0,1.760091E+0
3.396000E+0,1.761077E+0
3.397000E+0,1.762063E+0
3.398000E+0,1.762392E+0
3.399000E+0,1.763378E+0
3.400000E+0,1.764036E+0
3.401000E+0,1.764693E+0
3.402000E+0,1.765679E+0
3.403000E+0,1.766994E+0
3.404000E+0,1.767652E+0
3.405000E+0,1.768309E+0
3.406000E+0,1.768967E+0
3.407000E+0,1.769953E+0
3.408000E+0,1.770282E+0
3.409000E+0,1.770610E+0
3.410000E+0,1.771925E+0
3.411000E+0,1.772254E+0
3.412000E+0,1.773240E+0
3.413000E+0,1.774226E+0
3.414000E+0,1.774555E+0
3.415000E+0,1.775541E+0
3.416000E+0,1.775541E+0
3.417000E+0,1.777514E+0
3.418000E+0,1.777185E+0
3.419000E+0,1.777514E+0
3.420000E+0,1.778500E+0
3.421000E+0,1.778829E+0
3.422000E+0,1.779486E+0
3.423000E+0,1.779815E+0
3.424000E+0,1.780801E+0
3.425000E+0,1.781130E+0
3.426000E+0,1.782116E+0
3.427000E+0,1.782773E+0
3.428000E+0,1.782773E+0
3.429000E+0,1.784088E+0
3.430000E+0,1.785075E+0
3.431000E+0,1.784746E+0
3.432000E+0,1.784746E+0
3.433000E+0,1.786061E+0
3.434000E+0,1.786061E+0
3.435000E+0,1.786718E+0
3.436000E+0,1.788033E+0
3.437000E+0,1.787704E+0
3.438000E+0,1.788362E+0
3.439000E+0,1.788362E+0
3.440000E+0,1.789019E+0
3.441000E+0,1.789348E+0
3.442000E+0,1.790005E+0
3.443000E+0,1.790334E+0
3.444000E+0,1.790992E+0
3.445000E+0,1.790992E+0
3.446000E+0,1.791320E+0
3.447000E+0,1.791978E+0
3.448000E+0,1.791978E+0
3.449000E+0,1.793293E+0
3.450000E+0,1.792635E+0
3.451000E+0,1.793622E+0
3.452000E+0,1.794279E+0
3.453000E+0,1.793622E+0
3.454000E+0,1.794608E+0
3.455000E+0,1.794608E+0
3.456000E+0,1.795594E+0
3.457000E+0,1.794936E+0
3.458000E+0,1.795265E+0
3.459000E+0,1.795594E+0
3.460000E+0,1.795923E+0
3.461000E+0,1.795923E+0
3.462000E+0,1.796251E+0
3.463000E+0,1.796909E+0
3.464000E+0,1.796909E+0
3.465000E+0,1.797895E+0
3.466000E+0,1.797566E+0
3.467000E+0,1.798224E+0
3.468000E+0,1.798553E+0
3.469000E+0,1.798881E+0
3.470000E+0,1.797895E+0
3.471000E+0,1.798553E+0
3.472000E+0,1.798881E+0
3.473000E+0,1.797895E+0
3.474000E+0,1.799210E+0
3.475000E+0,1.799539E+0
3.476000E+0,1.799539E+0
3.477000E+0,1.799539E+0
3.478000E+0,1.798881E+0
3.479000E+0,1.800196E+0
3.480000E+0,1.800525E+0
3.481000E+0,1.800854E+0
3.482000E+0,1.800525E+0
3.483000E+0,1.800525E+0
3.484000E+0,1.800854E+0
3.485000E+0,1.801182E+0
3.486000E+0,1.801511E+0
3.487000E+0,1.801840E+0
3.488000E+0,1.801511E+0
3.489000E+0,1.801182E+0
3.490000E+0,1.801511E+0
3.491000E+0,1.801511E+0
3.492000E+0,1.801511E+0
3.493000E+0,1.801840E+0
3.494000E+0,1.801840E+0
3.495000E+0,1.801840E+0
3.496000E+0,1.801840E+0
3.497000E+0,1.802169E+0
3.498000E+0,1.801182E+0
3.499000E+0,1.802497E+0
3.500000E+0,1.801840E+0
3.501000E+0,1.802169E+0
3.502000E+0,1.802497E+0
3.503000E+0,1.802497E+0
3.504000E+0,1.802169E+0
3.505000E+0,1.802826E+0
3.506000E+0,1.802497E+0
3.507000E+0,1.802497E+0
3.508000E+0,1.802169E+0
3.509000E+0,1.802169E+0
3.510000E+0,1.802497E+0
3.511000E+0,1.802169E+0
3.512000E+0,1.802497E+0
3.513000E+0,1.802497E+0
3.514000E+0,1.802826E+0
3.515000E+0,1.802497E+0
3.516000E+0,1.802826E+0
3.517000E+0,1.803155E+0
3.518000E+0,1.802497E+0
3.519000E+0,1.802497E+0
3.520000E+0,1.802826E+0
3.521000E+0,1.802169E+0
3.522000E+0,1.802497E+0
3.523000E+0,1.802497E+0
3.524000E+0,1.802497E+0
3.525000E+0,1.802497E+0
3.526000E+0,1.802497E+0
3.527000E+0,1.802169E+0
3.528000E+0,1.802826E+0
3.529000E+0,1.802497E+0
3.530000E+0,1.802826E+0
3.531000E+0,1.802826E+0
3.532000E+0,1.802826E+0
3.533000E+0,1.802826E+0
3.534000E+0,1.802826E+0
3.535000E+0,1.803155E+0
3.536000E+0,1.802826E+0
3.537000E+0,1.802169E+0
3.538000E+0,1.802497E+0
3.539000E+0,1.801511E+0
3.540000E+0,1.802169E+0
3.541000E+0,1.802169E+0
3.542000E+0,1.802497E+0
3.543000E+0,1.802169E+0
3.544000E+0,1.802497E+0
3.545000E+0,1.802497E+0
3.546000E+0,1.802497E+0
3.547000E+0,1.802497E+0
3.548000E+0,1.802497E+0
3.549000E+0,1.802169E+0
3.550000E+0,1.802497E+0
3.551000E+0,1.802497E+0
3.552000E+0,1.802497E+0
3.553000E+0,1.801840E+0
3.554000E+0,1.802169E+0
3.555000E+0,1.802169E+0
3.556000E+0,1.802169E+0
3.557000E+0,1.802497E+0
3.558000E+0,1.801840E+0
3.559000E+0,1.802169E+0
3.560000E+0,1.801511E+0
3.561000E+0,1.801511E+0
3.562000E+0,1.801511E+0
3.563000E+0,1.801840E+0
3.564000E+0,1.802169E+0
3.565000E+0,1.801511E+0
3.566000E+0,1.801840E+0
3.567000E+0,1.802169E+0
3.568000E+0,1.801840E+0
3.569000E+0,1.801840E+0
3.570000E+0,1.801840E+0
3.571000E+0,1.802169E+0
3.572000E+0,1.801840E+0
3.573000E+0,1.801511E+0
3.574000E+0,1.801182E+0
3.575000E+0,1.801182E+0
3.576000E+0,1.801511E+0
3.577000E+0,1.801840E+0
3.578000E+0,1.801511E+0
3.579000E+0,1.801840E+0
3.580000E+0,1.801511E+0
3.581000E+0,1.802497E+0
3.582000E+0,1.801840E+0
3.583000E+0,1.801840E+0
3.584000E+0,1.801840E+0
3.585000E+0,1.802826E+0
3.586000E+0,1.801840E+0
3.587000E+0,1.801511E+0
3.588000E+0,1.801182E+0
3.589000E+0,1.801182E+0
3.590000E+0,1.802169E+0
3.591000E+0,1.801511E+0
3.592000E+0,1.800854E+0
3.593000E+0,1.801511E+0
3.594000E+0,1.801840E+0
3.595000E+0,1.801511E+0
3.596000E+0,1.801511E+0
3.597000E+0,1.801511E+0
3.598000E+0,1.801511E+0
3.599000E+0,1.801511E+0
3.600000E+0,1.801840E+0
3.601000E+0,1.801511E+0
3.602000E+0,1.801840E+0
3.603000E+0,1.802169E+0
3.604000E+0,1.802169E+0
3.605000E+0,1.801840E+0
3.606000E+0,1.801511E+0
3.607000E+0,1.801511E+0
3.608000E+0,1.801182E+0
3.609000E+0,1.801511E+0
3.610000E+0,1.801511E+0
3.611000E+0,1.801511E+0
3.612000E+0,1.802497E+0
3.613000E+0,1.801511E+0
3.614000E+0,1.802169E+0
3.615000E+0,1.801840E+0
3.616000E+0,1.801511E+0
3.617000E+0,1.801511E+0
3.618000E+0,1.802497E+0
3.619000E+0,1.801182E+0
3.620000E+0,1.801511E+0
3.621000E+0,1.801182E+0
3.622000E+0,1.801840E+0
3.623000E+0,1.801182E+0
3.624000E+0,1.801511E+0
3.625000E+0,1.800854E+0
3.626000E+0,1.801511E+0
3.627000E+0,1.801182E+0
3.628000E+0,1.802169E+0
3.629000E+0,1.801182E+0
3.630000E+0,1.801182E+0
3.631000E+0,1.801182E+0
3.632000E+0,1.801840E+0
3.633000E+0,1.802169E+0
3.634000E+0,1.802169E+0
3.635000E+0,1.802169E+0
3.636000E+0,1.801840E+0
3.637000E+0,1.801511E+0
3.638000E+0,1.801511E+0
3.639000E+0,1.801511E+0
3.640000E+0,1.801840E+0
3.641000E+0,1.801511E+0
3.642000E+0,1.802169E+0
3.643000E+0,1.801511E+0
3.644000E+0,1.801840E+0
3.645000E+0,1.801840E+0
3.646000E+0,1.801840E+0
3.647000E+0,1.802169E+0
3.648000E+0,1.802169E+0
3.649000E+0,1.802169E+0
3.650000E+0,1.802169E+0
3.651000E+0,1.802169E+0
3.652000E+0,1.802497E+0
3.653000E+0,1.802169E+0
3.654000E+0,1.801840E+0
3.655000E+0,1.802169E+0
3.656000E+0,1.801511E+0
3.657000E+0,1.801182E+0
3.658000E+0,1.802169E+0
3.659000E+0,1.801511E+0
3.660000E+0,1.801182E+0
3.661000E+0,1.802169E+0
3.662000E+0,1.802169E+0
3.663000E+0,1.800854E+0
3.664000E+0,1.802169E+0
3.665000E+0,1.802826E+0
3.666000E+0,1.801840E+0
3.667000E+0,1.802169E+0
3.668000E+0,1.802169E+0
3.669000E+0,1.801840E+0
3.670000E+0,1.801840E+0
3.671000E+0,1.801840E+0
3.672000E+0,1.802497E+0
3.673000E+0,1.801840E+0
3.674000E+0,1.801840E+0
3.675000E+0,1.802169E+0
3.676000E+0,1.802169E+0
3.677000E+0,1.801840E+0
3.678000E+0,1.802169E+0
3.679000E+0,1.802169E+0
3.680000E+0,1.802169E+0
3.681000E+0,1.802169E+0
3.682000E+0,1.802169E+0
3.683000E+0,1.802169E+0
3.684000E+0,1.802497E+0
3.685000E+0,1.802169E+0
3.686000E+0,1.802497E+0
3.687000E+0,1.801840E+0
3.688000E+0,1.802169E+0
3.689000E+0,1.802497E+0
3.690000E+0,1.802497E+0
3.691000E+0,1.801840E+0
3.692000E+0,1.802497E+0
3.693000E+0,1.801511E+0
3.694000E+0,1.802497E+0
3.695000E+0,1.802169E+0
3.696000E+0,1.801840E+0
3.697000E+0,1.801840E+0
3.698000E+0,1.802497E+0
3.699000E+0,1.802497E+0
3.700000E+0,1.802169E+0
3.701000E+0,1.801840E+0
3.702000E+0,1.801840E+0
3.703000E+0,1.801840E+0
3.704000E+0,1.802169E+0
3.705000E+0,1.802169E+0
3.706000E+0,1.802169E+0
3.707000E+0,1.802169E+0
3.708000E+0,1.802497E+0
3.709000E+0,1.801511E+0
3.710000E+0,1.801840E+0
3.711000E+0,1.802497E+0
3.712000E+0,1.802169E+0
3.713000E+0,1.802497E+0
3.714000E+0,1.801511E+0
3.715000E+0,1.801840E+0
3.716000E+0,1.801840E+0
3.717000E+0,1.802169E+0
3.718000E+0,1.802497E+0
3.719000E+0,1.802497E+0
3.720000E+0,1.801840E+0
3.721000E+0,1.802169E+0
3.722000E+0,1.802169E+0
3.723000E+0,1.801511E+0
3.724000E+0,1.801182E+0
3.725000E+0,1.801840E+0
3.726000E+0,1.801182E+0
3.727000E+0,1.801511E+0
3.728000E+0,1.802169E+0
3.729000E+0,1.801182E+0
3.730000E+0,1.801511E+0
3.731000E+0,1.802169E+0
3.732000E+0,1.801840E+0
3.733000E+0,1.801511E+0
3.734000E+0,1.800854E+0
3.735000E+0,1.801840E+0
3.736000E+0,1.801840E+0
3.737000E+0,1.802169E+0
3.738000E+0,1.801182E+0
3.739000E+0,1.801511E+0
3.740000E+0,1.802169E+0
3.741000E+0,1.801511E+0
3.742000E+0,1.801182E+0
3.743000E+0,1.801182E+0
3.744000E+0,1.801840E+0
3.745000E+0,1.801182E+0
3.746000E+0,1.801182E+0
3.747000E+0,1.801511E+0
3.748000E+0,1.801182E+0
3.749000E+0,1.801511E+0
3.750000E+0,1.801182E+0
3.751000E+0,1.801182E+0
3.752000E+0,1.801182E+0
3.753000E+0,1.801182E+0
3.754000E+0,1.801511E+0
3.755000E+0,1.801511E+0
3.756000E+0,1.801182E+0
3.757000E+0,1.801511E+0
3.758000E+0,1.801182E+0
3.759000E+0,1.801511E+0
3.760000E+0,1.800525E+0
3.761000E+0,1.800854E+0
3.762000E+0,1.801182E+0
3.763000E+0,1.801182E+0
3.764000E+0,1.801511E+0
3.765000E+0,1.800854E+0
3.766000E+0,1.801182E+0
3.767000E+0,1.801182E+0
3.768000E+0,1.800854E+0
3.769000E+0,1.800854E+0
3.770000E+0,1.800525E+0
3.771000E+0,1.800854E+0
3.772000E+0,1.801182E+0
3.773000E+0,1.801182E+0
3.774000E+0,1.801511E+0
3.775000E+0,1.801511E+0
3.776000E+0,1.800196E+0
3.777000E+0,1.800525E+0
3.778000E+0,1.800196E+0
3.779000E+0,1.800854E+0
3.780000E+0,1.800525E+0
3.781000E+0,1.800854E+0
3.782000E+0,1.801182E+0
3.783000E+0,1.800525E+0
3.784000E+0,1.800196E+0
3.785000E+0,1.800525E+0
3.786000E+0,1.800525E+0
3.787000E+0,1.800525E+0
3.788000E+0,1.800525E+0
3.789000E+0,1.800196E+0
3.790000E+0,1.800196E+0
3.791000E+0,1.799867E+0
3.792000E+0,1.800196E+0
3.793000E+0,1.800196E+0
3.794000E+0,1.799539E+0
3.795000E+0,1.800525E+0
3.796000E+0,1.799867E+0
3.797000E+0,1.800854E+0
3.798000E+0,1.800196E+0
3.799000E+0,1.799867E+0
3.800000E+0,1.800196E+0
3.801000E+0,1.800854E+0
3.802000E+0,1.800196E+0
3.803000E+0,1.800196E+0
3.804000E+0,1.800525E+0
3.805000E+0,1.800525E+0
3.806000E+0,1.800196E+0
3.807000E+0,1.799867E+0
3.808000E+0,1.799210E+0
3.809000E+0,1.799210E+0
3.810000E+0,1.800196E+0
3.811000E+0,1.799539E+0
3.812000E+0,1.799867E+0
3.813000E+0,1.799867E+0
3.814000E+0,1.800196E+0
3.815000E+0,1.800525E+0
3.816000E+0,1.799539E+0
3.817000E+0,1.799539E+0
3.818000E+0,1.800525E+0
3.819000E+0,1.799210E+0
3.820000E+0,1.798881E+0
3.821000E+0,1.799210E+0
3.822000E+0,1.799210E+0
3.823000E+0,1.798881E+0
3.824000E+0,1.799539E+0
3.825000E+0,1.799210E+0
3.826000E+0,1.798881E+0
3.827000E+0,1.799210E+0
3.828000E+0,1.799210E+0
3.829000E+0,1.799210E+0
3.830000E+0,1.798553E+0
3.831000E+0,1.798553E+0
3.832000E+0,1.798881E+0
3.833000E+0,1.799210E+0
3.834000E+0,1.798881E+0
3.835000E+0,1.799210E+0
3.836000E+0,1.799539E+0
3.837000E+0,1.799210E+0
3.838000E+0,1.799210E+0
3.839000E+0,1.799539E+0
3.840000E+0,1.799210E+0
3.841000E+0,1.799539E+0
3.842000E+0,1.797895E+0
3.843000E+0,1.799210E+0
3.844000E+0,1.798881E+0
3.845000E+0,1.798881E+0
3.846000E+0,1.798881E+0
3.847000E+0,1.799210E+0
3.848000E+0,1.799210E+0
3.849000E+0,1.798553E+0
3.850000E+0,1.798881E+0
3.851000E+0,1.799539E+0
3.852000E+0,1.798881E+0
3.853000E+0,1.798553E+0
3.854000E+0,1.798224E+0
3.855000E+0,1.798881E+0
3.856000E+0,1.798553E+0
3.857000E+0,1.798553E+0
3.858000E+0,1.798224E+0
3.859000E+0,1.798224E+0
3.860000E+0,1.798224E+0
3.861000E+0,1.798553E+0
3.862000E+0,1.798553E+0
3.863000E+0,1.798881E+0
3.864000E+0,1.798553E+0
3.865000E+0,1.798553E+0
3.866000E+0,1.799210E+0
3.867000E+0,1.798224E+0
3.868000E+0,1.798881E+0
3.869000E+0,1.798553E+0
3.870000E+0,1.797238E+0
3.871000E+0,1.798224E+0
3.872000E+0,1.797895E+0
3.873000E+0,1.798224E+0
3.874000E+0,1.797566E+0
3.875000E+0,1.798224E+0
3.876000E+0,1.797895E+0
3.877000E+0,1.797566E+0
3.878000E+0,1.798881E+0
3.879000E+0,1.797895E+0
3.880000E+0,1.798881E+0
3.881000E+0,1.798553E+0
3.882000E+0,1.798224E+0
3.883000E+0,1.798224E+0
3.884000E+0,1.798553E+0
3.885000E+0,1.798224E+0
3.886000E+0,1.798224E+0
3.887000E+0,1.797895E+0
3.888000E+0,1.798224E+0
3.889000E+0,1.797895E+0
3.890000E+0,1.797566E+0
3.891000E+0,1.797895E+0
3.892000E+0,1.797566E+0
3.893000E+0,1.797895E+0
3.894000E+0,1.796909E+0
3.895000E+0,1.798224E+0
3.896000E+0,1.797895E+0
3.897000E+0,1.798224E+0
3.898000E+0,1.797895E+0
3.899000E+0,1.798224E+0
3.900000E+0,1.797566E+0
3.901000E+0,1.798224E+0
3.902000E+0,1.797566E+0
3.903000E+0,1.798553E+0
3.904000E+0,1.797895E+0
3.905000E+0,1.797566E+0
3.906000E+0,1.797238E+0
3.907000E+0,1.797238E+0
3.908000E+0,1.797566E+0
3.909000E+0,1.797566E+0
3.910000E+0,1.797238E+0
3.911000E+0,1.797566E+0
3.912000E+0,1.797566E+0
3.913000E+0,1.797895E+0
3.914000E+0,1.797566E+0
3.915000E+0,1.797566E+0
3.916000E+0,1.797566E+0
3.917000E+0,1.797238E+0
3.918000E+0,1.796909E+0
3.919000E+0,1.797895E+0
3.920000E+0,1.797566E+0
3.921000E+0,1.797895E+0
3.922000E+0,1.797238E+0
3.923000E+0,1.797238E+0
3.924000E+0,1.797566E+0
3.925000E+0,1.797566E+0
3.926000E+0,1.797895E+0
3.927000E+0,1.796909E+0
3.928000E+0,1.796909E+0
3.929000E+0,1.796909E+0
3.930000E+0,1.797566E+0
3.931000E+0,1.797238E+0
3.932000E+0,1.797238E+0
3.933000E+0,1.797238E+0
3.934000E+0,1.796909E+0
3.935000E+0,1.797895E+0
3.936000E+0,1.797238E+0
3.937000E+0,1.796909E+0
3.938000E+0,1.796909E+0
3.939000E+0,1.796909E+0
3.940000E+0,1.797238E+0
3.941000E+0,1.796909E+0
3.942000E+0,1.796580E+0
3.943000E+0,1.796909E+0
3.944000E+0,1.796909E+0
3.945000E+0,1.796909E+0
3.946000E+0,1.797238E+0
3.947000E+0,1.797238E+0
3.948000E+0,1.797566E+0
3.949000E+0,1.796580E+0
3.950000E+0,1.797566E+0
3.951000E+0,1.797238E+0
3.952000E+0,1.796909E+0
3.953000E+0,1.797238E+0
3.954000E+0,1.796909E+0
3.955000E+0,1.796251E+0
3.956000E+0,1.796909E+0
3.957000E+0,1.796580E+0
3.958000E+0,1.796909E+0
3.959000E+0,1.795265E+0
3.960000E+0,1.796251E+0
3.961000E+0,1.796580E+0
3.962000E+0,1.796909E+0
3.963000E+0,1.796580E+0
3.964000E+0,1.795923E+0
3.965000E+0,1.796580E+0
3.966000E+0,1.796580E+0
3.967000E+0,1.796580E+0
3.968000E+0,1.796909E+0
3.969000E+0,1.796909E+0
3.970000E+0,1.796909E+0
3.971000E+0,1.796580E+0
3.972000E+0,1.796909E+0
3.973000E+0,1.796909E+0
3.974000E+0,1.796909E+0
3.975000E+0,1.797238E+0
3.976000E+0,1.796251E+0
3.977000E+0,1.795594E+0
3.978000E+0,1.796909E+0
3.979000E+0,1.796251E+0
3.980000E+0,1.795923E+0
3.981000E+0,1.796580E+0
3.982000E+0,1.796909E+0
3.983000E+0,1.796251E+0
3.984000E+0,1.796251E+0
3.985000E+0,1.796580E+0
3.986000E+0,1.795594E+0
3.987000E+0,1.795594E+0
3.988000E+0,1.795594E+0
3.989000E+0,1.795594E+0
3.990000E+0,1.795594E+0
3.991000E+0,1.795923E+0
3.992000E+0,1.795594E+0
3.993000E+0,1.795265E+0
3.994000E+0,1.795265E+0
3.995000E+0,1.795923E+0
3.996000E+0,1.795265E+0
3.997000E+0,1.795923E+0
3.998000E+0,1.794936E+0
3.999000E+0,1.796251E+0
4.000000E+0,1.795594E+0
4.001000E+0,1.795594E+0
4.002000E+0,1.795594E+0
4.003000E+0,1.795594E+0
4.004000E+0,1.795265E+0
4.005000E+0,1.795265E+0
4.006000E+0,1.795923E+0
4.007000E+0,1.794936E+0
4.008000E+0,1.794936E+0
4.009000E+0,1.794608E+0
4.010000E+0,1.795265E+0
4.011000E+0,1.794608E+0
4.012000E+0,1.795594E+0
4.013000E+0,1.795265E+0
4.014000E+0,1.794936E+0
4.015000E+0,1.794936E+0
4.016000E+0,1.794936E+0
4.017000E+0,1.794936E+0
4.018000E+0,1.794608E+0
4.019000E+0,1.794608E+0
4.020000E+0,1.793950E+0
4.021000E+0,1.793622E+0
4.022000E+0,1.793950E+0
4.023000E+0,1.794279E+0
4.024000E+0,1.793950E+0
4.025000E+0,1.793293E+0
4.026000E+0,1.793950E+0
4.027000E+0,1.792964E+0
4.028000E+0,1.792964E+0
4.029000E+0,1.793293E+0
4.030000E+0,1.793622E+0
4.031000E+0,1.793293E+0
4.032000E+0,1.793293E+0
4.033000E+0,1.792964E+0
4.034000E+0,1.792964E+0
4.035000E+0,1.792964E+0
4.036000E+0,1.792964E+0
4.037000E+0,1.792964E+0
4.038000E+0,1.791978E+0
4.039000E+0,1.792307E+0
4.040000E+0,1.792635E+0
4.041000E+0,1.791978E+0
4.042000E+0,1.792307E+0
4.043000E+0,1.791978E+0
4.044000E+0,1.791978E+0
4.045000E+0,1.791978E+0
4.046000E+0,1.791978E+0
4.047000E+0,1.791320E+0
4.048000E+0,1.791978E+0
4.049000E+0,1.790992E+0
4.050000E+0,1.791649E+0
4.051000E+0,1.791320E+0
4.052000E+0,1.791320E+0
4.053000E+0,1.790992E+0
4.054000E+0,1.790992E+0
4.055000E+0,1.790334E+0
4.056000E+0,1.790992E+0
4.057000E+0,1.790663E+0
4.058000E+0,1.790334E+0
4.059000E+0,1.790005E+0
4.060000E+0,1.789348E+0
4.061000E+0,1.790334E+0
4.062000E+0,1.789677E+0
4.063000E+0,1.789348E+0
4.064000E+0,1.789348E+0
4.065000E+0,1.789348E+0
4.066000E+0,1.789677E+0
4.067000E+0,1.789019E+0
4.068000E+0,1.789019E+0
4.069000E+0,1.789019E+0
4.070000E+0,1.789019E+0
4.071000E+0,1.789019E+0
4.072000E+0,1.788033E+0
4.073000E+0,1.788362E+0
4.074000E+0,1.788033E+0
4.075000E+0,1.788033E+0
4.076000E+0,1.787704E+0
4.077000E+0,1.786718E+0
4.078000E+0,1.787704E+0
4.079000E+0,1.787704E+0
4.080000E+0,1.786389E+0
4.081000E+0,1.786389E+0
4.082000E+0,1.785732E+0
4.083000E+0,1.786061E+0
4.084000E+0,1.785732E+0
4.085000E+0,1.785732E+0
4.086000E+0,1.785075E+0
4.087000E+0,1.785075E+0
4.088000E+0,1.784088E+0
4.089000E+0,1.784746E+0
4.090000E+0,1.784088E+0
4.091000E+0,1.784088E+0
4.092000E+0,1.784746E+0
4.093000E+0,1.784088E+0
4.094000E+0,1.783431E+0
4.095000E+0,1.784088E+0
4.096000E+0,1.783431E+0
4.097000E+0,1.783102E+0
4.098000E+0,1.782773E+0
4.099000E+0,1.783760E+0
4.100000E+0,1.782445E+0
4.101000E+0,1.782773E+0
4.102000E+0,1.782116E+0
4.103000E+0,1.782116E+0
4.104000E+0,1.781458E+0
4.105000E+0,1.780144E+0
4.106000E+0,1.781787E+0
4.107000E+0,1.781130E+0
4.108000E+0,1.780801E+0
4.109000E+0,1.780472E+0
4.110000E+0,1.779815E+0
4.111000E+0,1.780144E+0
4.112000E+0,1.779486E+0
4.113000E+0,1.778829E+0
4.114000E+0,1.779815E+0
4.115000E+0,1.779157E+0
4.116000E+0,1.779157E+0
4.117000E+0,1.778500E+0
4.118000E+0,1.777842E+0
4.119000E+0,1.777842E+0
4.120000E+0,1.776856E+0
4.121000E+0,1.777514E+0
4.122000E+0,1.776856E+0
4.123000E+0,1.776199E+0
4.124000E+0,1.776528E+0
4.125000E+0,1.776528E+0
4.126000E+0,1.775870E+0
4.127000E+0,1.775213E+0
4.128000E+0,1.775870E+0
4.129000E+0,1.775541E+0
4.130000E+0,1.774884E+0
4.131000E+0,1.774555E+0
4.132000E+0,1.774884E+0
4.133000E+0,1.774884E+0
4.134000E+0,1.774226E+0
4.135000E+0,1.773898E+0
4.136000E+0,1.773240E+0
4.137000E+0,1.773240E+0
4.138000E+0,1.772911E+0
4.139000E+0,1.772583E+0
4.140000E+0,1.771925E+0
4.141000E+0,1.771925E+0
4.142000E+0,1.772254E+0
4.143000E+0,1.771268E+0
4.144000E+0,1.770939E+0
4.145000E+0,1.770610E+0
4.146000E+0,1.770282E+0
4.147000E+0,1.769953E+0
4.148000E+0,1.769953E+0
4.149000E+0,1.769624E+0
4.150000E+0,1.769295E+0
4.151000E+0,1.769295E+0
4.152000E+0,1.768967E+0
4.153000E+0,1.768309E+0
4.154000E+0,1.768309E+0
4.155000E+0,1.767323E+0
4.156000E+0,1.767323E+0
4.157000E+0,1.766994E+0
4.158000E+0,1.766994E+0
4.159000E+0,1.766666E+0
4.160000E+0,1.766008E+0
4.161000E+0,1.766337E+0
4.162000E+0,1.766337E+0
4.163000E+0,1.765351E+0
4.164000E+0,1.765351E+0
4.165000E+0,1.765022E+0
4.166000E+0,1.764036E+0
4.167000E+0,1.764364E+0
4.168000E+0,1.763707E+0
4.169000E+0,1.763378E+0
4.170000E+0,1.762721E+0
4.171000E+0,1.762392E+0
4.172000E+0,1.762392E+0
4.173000E+0,1.762721E+0
4.174000E+0,1.762063E+0
4.175000E+0,1.761735E+0
4.176000E+0,1.761077E+0
4.177000E+0,1.760748E+0
4.178000E+0,1.760091E+0
4.179000E+0,1.760091E+0
4.180000E+0,1.760420E+0
4.181000E+0,1.759762E+0
4.182000E+0,1.759762E+0
4.183000E+0,1.759433E+0
4.184000E+0,1.758447E+0
4.185000E+0,1.758447E+0
4.186000E+0,1.758119E+0
4.187000E+0,1.757790E+0
4.188000E+0,1.757461E+0
4.189000E+0,1.757790E+0
4.190000E+0,1.756804E+0
4.191000E+0,1.757132E+0
4.192000E+0,1.756475E+0
4.193000E+0,1.755489E+0
4.194000E+0,1.755160E+0
4.195000E+0,1.755489E+0
4.196000E+0,1.755160E+0
4.197000E+0,1.754831E+0
4.198000E+0,1.754503E+0
4.199000E+0,1.754503E+0
4.200000E+0,1.753516E+0
4.201000E+0,1.753845E+0
4.202000E+0,1.753188E+0
4.203000E+0,1.752859E+0
4.204000E+0,1.752201E+0
4.205000E+0,1.752201E+0
4.206000E+0,1.751544E+0
4.207000E+0,1.751873E+0
4.208000E+0,1.751544E+0
4.209000E+0,1.751215E+0
4.210000E+0,1.749900E+0
4.211000E+0,1.750886E+0
4.212000E+0,1.750558E+0
4.213000E+0,1.749900E+0
4.214000E+0,1.749572E+0
4.215000E+0,1.750229E+0
4.216000E+0,1.749572E+0
4.217000E+0,1.749572E+0
4.218000E+0,1.748585E+0
4.219000E+0,1.748914E+0
4.220000E+0,1.747928E+0
4.221000E+0,1.747928E+0
4.222000E+0,1.746942E+0
4.223000E+0,1.746613E+0
4.224000E+0,1.746613E+0
4.225000E+0,1.746613E+0
4.226000E+0,1.745298E+0
4.227000E+0,1.745627E+0
4.228000E+0,1.745956E+0
4.229000E+0,1.745956E+0
4.230000E+0,1.744969E+0
4.231000E+0,1.744969E+0
4.232000E+0,1.744641E+0
4.233000E+0,1.744312E+0
4.234000E+0,1.744641E+0
4.235000E+0,1.742997E+0
4.236000E+0,1.743654E+0
4.237000E+0,1.742997E+0
4.238000E+0,1.742997E+0
4.239000E+0,1.742668E+0
4.240000E+0,1.741682E+0
4.241000E+0,1.742011E+0
4.242000E+0,1.741353E+0
4.243000E+0,1.740696E+0
4.244000E+0,1.740367E+0
4.245000E+0,1.741025E+0
4.246000E+0,1.740696E+0
4.247000E+0,1.740696E+0
4.248000E+0,1.739710E+0
4.249000E+0,1.739710E+0
4.250000E+0,1.739381E+0
4.251000E+0,1.739710E+0
4.252000E+0,1.739381E+0
4.253000E+0,1.739052E+0
4.254000E+0,1.738395E+0
4.255000E+0,1.738395E+0
4.256000E+0,1.738395E+0
4.257000E+0,1.738066E+0
4.258000E+0,1.737737E+0
4.259000E+0,1.737737E+0
4.260000E+0,1.737409E+0
4.261000E+0,1.737409E+0
4.262000E+0,1.737080E+0
4.263000E+0,1.737080E+0
4.264000E+0,1.736422E+0
4.265000E+0,1.736422E+0
4.266000E+0,1.736422E+0
4.267000E+0,1.736094E+0
4.268000E+0,1.735436E+0
4.269000E+0,1.735765E+0
4.270000E+0,1.735765E+0
4.271000E+0,1.735107E+0
4.272000E+0,1.734779E+0
4.273000E+0,1.735107E+0
4.274000E+0,1.734450E+0
4.275000E+0,1.734450E+0
4.276000E+0,1.734450E+0
4.277000E+0,1.733464E+0
4.278000E+0,1.733792E+0
4.279000E+0,1.733792E+0
4.280000E+0,1.733135E+0
4.281000E+0,1.733135E+0
4.282000E+0,1.733464E+0
4.283000E+0,1.732806E+0
4.284000E+0,1.732478E+0
4.285000E+0,1.732478E+0
4.286000E+0,1.732478E+0
4.287000E+0,1.732149E+0
4.288000E+0,1.732149E+0
4.289000E+0,1.731820E+0
4.290000E+0,1.731820E+0
4.291000E+0,1.731491E+0
4.292000E+0,1.731163E+0
4.293000E+0,1.730834E+0
4.294000E+0,1.730834E+0
4.295000E+0,1.731163E+0
4.296000E+0,1.731491E+0
4.297000E+0,1.730505E+0
4.298000E+0,1.731163E+0
4.299000E+0,1.730176E+0
4.300000E+0,1.730176E+0
4.301000E+0,1.731163E+0
4.302000E+0,1.729848E+0
4.303000E+0,1.729190E+0
4.304000E+0,1.729519E+0
4.305000E+0,1.729190E+0
4.306000E+0,1.729190E+0
4.307000E+0,1.729190E+0
4.308000E+0,1.728861E+0
4.309000E+0,1.728533E+0
4.310000E+0,1.728533E+0
4.311000E+0,1.727875E+0
4.312000E+0,1.727547E+0
4.313000E+0,1.728533E+0
4.314000E+0,1.728861E+0
4.315000E+0,1.727875E+0
4.316000E+0,1.728861E+0
4.317000E+0,1.728204E+0
4.318000E+0,1.728861E+0
4.319000E+0,1.727875E+0
4.320000E+0,1.728204E+0
4.321000E+0,1.727547E+0
4.322000E+0,1.727875E+0
4.323000E+0,1.727547E+0
4.324000E+0,1.727218E+0
4.325000E+0,1.727218E+0
4.326000E+0,1.727218E+0
4.327000E+0,1.726889E+0
4.328000E+0,1.726560E+0
4.329000E+0,1.726889E+0
4.330000E+0,1.726889E+0
4.331000E+0,1.726889E+0
4.332000E+0,1.726889E+0
4.333000E+0,1.726560E+0
4.334000E+0,1.726889E+0
4.335000E+0,1.726560E+0
4.336000E+0,1.725903E+0
4.337000E+0,1.726232E+0
4.338000E+0,1.726560E+0
4.339000E+0,1.726232E+0
4.340000E+0,1.725903E+0
4.341000E+0,1.725903E+0
4.342000E+0,1.725903E+0
4.343000E+0,1.725245E+0
4.344000E+0,1.725903E+0
4.345000E+0,1.725903E+0
4.346000E+0,1.725574E+0
4.347000E+0,1.725245E+0
4.348000E+0,1.725903E+0
4.349000E+0,1.725903E+0
4.350000E+0,1.725903E+0
4.351000E+0,1.725903E+0
4.352000E+0,1.725574E+0
4.353000E+0,1.725245E+0
4.354000E+0,1.725574E+0
4.355000E+0,1.725245E+0
4.356000E+0,1.725245E+0
4.357000E+0,1.725245E+0
4.358000E+0,1.725245E+0
4.359000E+0,1.724917E+0
4.360000E+0,1.724917E+0
4.361000E+0,1.724917E+0
4.362000E+0,1.725245E+0
4.363000E+0,1.724588E+0
4.364000E+0,1.725245E+0
4.365000E+0,1.725245E+0
4.366000E+0,1.725245E+0
4.367000E+0,1.724917E+0
4.368000E+0,1.725574E+0
4.369000E+0,1.724588E+0
4.370000E+0,1.724588E+0
4.371000E+0,1.724917E+0
4.372000E+0,1.725574E+0
4.373000E+0,1.724917E+0
4.374000E+0,1.724917E+0
4.375000E+0,1.725245E+0
4.376000E+0,1.724588E+0
4.377000E+0,1.724259E+0
4.378000E+0,1.725245E+0
4.379000E+0,1.725245E+0
4.380000E+0,1.725245E+0
4.381000E+0,1.725245E+0
4.382000E+0,1.724917E+0
4.383000E+0,1.724588E+0
4.384000E+0,1.724917E+0
4.385000E+0,1.724917E+0
4.386000E+0,1.724917E+0
4.387000E+0,1.724588E+0
4.388000E+0,1.724588E+0
4.389000E+0,1.725245E+0
4.390000E+0,1.724588E+0
4.391000E+0,1.724917E+0
4.392000E+0,1.724588E+0
4.393000E+0,1.724588E+0
4.394000E+0,1.724259E+0
4.395000E+0,1.724259E+0
4.396000E+0,1.724588E+0
4.397000E+0,1.724588E+0
4.398000E+0,1.724588E+0
4.399000E+0,1.724917E+0
4.400000E+0,1.724259E+0
4.401000E+0,1.725245E+0
4.402000E+0,1.724917E+0
4.403000E+0,1.724588E+0
4.404000E+0,1.724259E+0
4.405000E+0,1.724259E+0
4.406000E+0,1.723931E+0
4.407000E+0,1.724588E+0
4.408000E+0,1.724588E+0
4.409000E+0,1.724588E+0
4.410000E+0,1.724588E+0
4.411000E+0,1.724917E+0
4.412000E+0,1.724588E+0
4.413000E+0,1.724588E+0
4.414000E+0,1.724588E+0
4.415000E+0,1.725245E+0
4.416000E+0,1.724259E+0
4.417000E+0,1.724588E+0
4.418000E+0,1.724588E+0
4.419000E+0,1.724588E+0
4.420000E+0,1.724588E+0
4.421000E+0,1.724588E+0
4.422000E+0,1.724259E+0
4.423000E+0,1.723931E+0
4.424000E+0,1.724259E+0
4.425000E+0,1.724917E+0
4.426000E+0,1.724588E+0
4.427000E+0,1.724917E+0
4.428000E+0,1.724917E+0
4.429000E+0,1.724917E+0
4.430000E+0,1.724259E+0
4.431000E+0,1.723931E+0
4.432000E+0,1.725574E+0
4.433000E+0,1.724588E+0
4.434000E+0,1.724259E+0
4.435000E+0,1.724588E+0
4.436000E+0,1.724917E+0
4.437000E+0,1.723931E+0
4.438000E+0,1.723602E+0
4.439000E+0,1.724259E+0
4.440000E+0,1.723602E+0
4.441000E+0,1.723602E+0
4.442000E+0,1.724259E+0
4.443000E+0,1.723273E+0
4.444000E+0,1.723602E+0
4.445000E+0,1.723602E+0
4.446000E+0,1.724588E+0
4.447000E+0,1.723931E+0
4.448000E+0,1.723602E+0
4.449000E+0,1.723931E+0
4.450000E+0,1.723273E+0
4.451000E+0,1.724259E+0
4.452000E+0,1.723602E+0
4.453000E+0,1.722944E+0
4.454000E+0,1.723273E+0
4.455000E+0,1.722944E+0
4.456000E+0,1.722944E+0
4.457000E+0,1.722616E+0
4.458000E+0,1.722616E+0
4.459000E+0,1.720972E+0
4.460000E+0,1.722616E+0
4.461000E+0,1.722616E+0
4.462000E+0,1.722616E+0
4.463000E+0,1.722616E+0
4.464000E+0,1.722287E+0
4.465000E+0,1.722287E+0
4.466000E+0,1.721958E+0
4.467000E+0,1.721629E+0
4.468000E+0,1.722287E+0
4.469000E+0,1.721629E+0
4.470000E+0,1.721301E+0
4.471000E+0,1.721629E+0
4.472000E+0,1.721301E+0
4.473000E+0,1.720643E+0
4.474000E+0,1.720972E+0
4.475000E+0,1.720972E+0
4.476000E+0,1.719986E+0
4.477000E+0,1.719986E+0
4.478000E+0,1.719657E+0
4.479000E+0,1.719986E+0
4.480000E+0,1.719328E+0
4.481000E+0,1.719328E+0
4.482000E+0,1.719328E+0
4.483000E+0,1.719328E+0
4.484000E+0,1.718671E+0
4.485000E+0,1.718342E+0
4.486000E+0,1.717685E+0
4.487000E+0,1.718342E+0
4.488000E+0,1.717027E+0
4.489000E+0,1.717027E+0
4.490000E+0,1.716370E+0
4.491000E+0,1.716698E+0
4.492000E+0,1.715712E+0
4.493000E+0,1.715384E+0
4.494000E+0,1.715055E+0
4.495000E+0,1.714726E+0
4.496000E+0,1.714397E+0
4.497000E+0,1.715055E+0
4.498000E+0,1.714069E+0
4.499000E+0,1.714069E+0
4.500000E+0,1.713082E+0
4.501000E+0,1.713411E+0
4.502000E+0,1.712096E+0
4.503000E+0,1.712096E+0
4.504000E+0,1.711110E+0
4.505000E+0,1.711110E+0
4.506000E+0,1.710124E+0
4.507000E+0,1.709466E+0
4.508000E+0,1.709466E+0
4.509000E+0,1.709138E+0
4.510000E+0,1.708809E+0
4.511000E+0,1.708151E+0
4.512000E+0,1.707823E+0
4.513000E+0,1.707165E+0
4.514000E+0,1.706836E+0
4.515000E+0,1.706179E+0
4.516000E+0,1.705850E+0
4.517000E+0,1.704535E+0
4.518000E+0,1.704864E+0
4.519000E+0,1.704535E+0
4.520000E+0,1.703549E+0
4.521000E+0,1.703549E+0
4.522000E+0,1.702563E+0
4.523000E+0,1.701577E+0
4.524000E+0,1.700919E+0
4.525000E+0,1.699933E+0
4.526000E+0,1.699933E+0
4.527000E+0,1.699604E+0
4.528000E+0,1.699276E+0
4.529000E+0,1.697961E+0
4.530000E+0,1.697303E+0
4.531000E+0,1.696317E+0
4.532000E+0,1.695988E+0
4.533000E+0,1.695331E+0
4.534000E+0,1.694673E+0
4.535000E+0,1.693687E+0
4.536000E+0,1.693359E+0
4.537000E+0,1.692701E+0
4.538000E+0,1.691386E+0
4.539000E+0,1.691715E+0
4.540000E+0,1.689414E+0
4.541000E+0,1.689414E+0
4.542000E+0,1.688099E+0
4.543000E+0,1.687113E+0
4.544000E+0,1.686784E+0
4.545000E+0,1.686455E+0
4.546000E+0,1.685469E+0
4.547000E+0,1.684483E+0
4.548000E+0,1.683825E+0
4.549000E+0,1.683497E+0
4.550000E+0,1.682182E+0
4.551000E+0,1.681195E+0
4.552000E+0,1.680209E+0
4.553000E+0,1.679881E+0
4.554000E+0,1.678237E+0
4.555000E+0,1.678237E+0
4.556000E+0,1.676922E+0
4.557000E+0,1.676593E+0
4.558000E+0,1.675278E+0
4.559000E+0,1.673963E+0
4.560000E+0,1.672977E+0
4.561000E+0,1.672648E+0
4.562000E+0,1.671991E+0
4.563000E+0,1.671005E+0
4.564000E+0,1.669690E+0
4.565000E+0,1.668704E+0
4.566000E+0,1.668046E+0
4.567000E+0,1.668046E+0
4.568000E+0,1.666403E+0
4.569000E+0,1.666074E+0
4.570000E+0,1.664101E+0
4.571000E+0,1.663115E+0
4.572000E+0,1.661472E+0
4.573000E+0,1.661472E+0
4.574000E+0,1.660157E+0
4.575000E+0,1.659170E+0
4.576000E+0,1.658184E+0
4.577000E+0,1.656869E+0
4.578000E+0,1.656541E+0
4.579000E+0,1.655226E+0
4.580000E+0,1.653253E+0
4.581000E+0,1.652925E+0
4.582000E+0,1.652267E+0
4.583000E+0,1.650952E+0
4.584000E+0,1.649966E+0
4.585000E+0,1.649309E+0
4.586000E+0,1.647994E+0
4.587000E+0,1.647007E+0
4.588000E+0,1.646021E+0
4.589000E+0,1.645035E+0
4.590000E+0,1.644049E+0
4.591000E+0,1.643063E+0
4.592000E+0,1.641748E+0
4.593000E+0,1.639447E+0
4.594000E+0,1.639447E+0
4.595000E+0,1.638789E+0
4.596000E+0,1.637145E+0
4.597000E+0,1.636488E+0
4.598000E+0,1.635831E+0
4.599000E+0,1.634516E+0
4.600000E+0,1.633529E+0
4.601000E+0,1.632215E+0
4.602000E+0,1.631228E+0
4.603000E+0,1.629913E+0
4.604000E+0,1.628598E+0
4.605000E+0,1.627941E+0
4.606000E+0,1.626626E+0
4.607000E+0,1.625311E+0
4.608000E+0,1.624982E+0
4.609000E+0,1.623339E+0
4.610000E+0,1.622024E+0
4.611000E+0,1.621038E+0
4.612000E+0,1.620709E+0
4.613000E+0,1.619065E+0
4.614000E+0,1.618079E+0
4.615000E+0,1.616435E+0
4.616000E+0,1.615778E+0
4.617000E+0,1.614792E+0
4.618000E+0,1.614134E+0
4.619000E+0,1.612491E+0
4.620000E+0,1.611504E+0
4.621000E+0,1.610518E+0
4.622000E+0,1.608875E+0
4.623000E+0,1.608217E+0
4.624000E+0,1.606902E+0
4.625000E+0,1.605587E+0
4.626000E+0,1.604272E+0
4.627000E+0,1.603286E+0
4.628000E+0,1.602629E+0
4.629000E+0,1.601314E+0
4.630000E+0,1.600328E+0
4.631000E+0,1.599341E+0
4.632000E+0,1.598026E+0
4.633000E+0,1.596712E+0
4.634000E+0,1.596054E+0
4.635000E+0,1.594739E+0
4.636000E+0,1.594410E+0
4.637000E+0,1.592767E+0
4.638000E+0,1.591781E+0
4.639000E+0,1.590794E+0
4.640000E+0,1.589808E+0
4.641000E+0,1.588493E+0
4.642000E+0,1.586850E+0
4.643000E+0,1.585863E+0
4.644000E+0,1.584877E+0
4.645000E+0,1.583562E+0
4.646000E+0,1.582247E+0
4.647000E+0,1.581590E+0
4.648000E+0,1.580275E+0
4.649000E+0,1.579289E+0
4.650000E+0,1.578631E+0
4.651000E+0,1.576988E+0
4.652000E+0,1.576330E+0
4.653000E+0,1.575015E+0
4.654000E+0,1.574358E+0
4.655000E+0,1.573043E+0
4.656000E+0,1.572385E+0
4.657000E+0,1.571071E+0
4.658000E+0,1.569427E+0
4.659000E+0,1.568769E+0
4.660000E+0,1.568112E+0
4.661000E+0,1.567126E+0
4.662000E+0,1.565482E+0
4.663000E+0,1.565153E+0
4.664000E+0,1.563510E+0
4.665000E+0,1.562852E+0
4.666000E+0,1.562195E+0
4.667000E+0,1.560551E+0
4.668000E+0,1.559565E+0
4.669000E+0,1.559565E+0
4.670000E+0,1.558250E+0
4.671000E+0,1.557921E+0
4.672000E+0,1.554963E+0
4.673000E+0,1.555291E+0
4.674000E+0,1.554305E+0
4.675000E+0,1.552004E+0
4.676000E+0,1.552333E+0
4.677000E+0,1.550689E+0
4.678000E+0,1.550689E+0
4.679000E+0,1.549703E+0
4.680000E+0,1.549046E+0
4.681000E+0,1.547731E+0
4.682000E+0,1.546744E+0
4.683000E+0,1.546416E+0
4.684000E+0,1.544772E+0
4.685000E+0,1.544115E+0
4.686000E+0,1.542800E+0
4.687000E+0,1.541813E+0
4.688000E+0,1.540827E+0
4.689000E+0,1.539841E+0
4.690000E+0,1.539184E+0
4.691000E+0,1.538197E+0
4.692000E+0,1.537211E+0
4.693000E+0,1.536225E+0
4.694000E+0,1.534910E+0
4.695000E+0,1.533924E+0
4.696000E+0,1.533266E+0
4.697000E+0,1.532609E+0
4.698000E+0,1.530965E+0
4.699000E+0,1.530637E+0
4.700000E+0,1.529979E+0
4.701000E+0,1.528993E+0
4.702000E+0,1.528007E+0
4.703000E+0,1.527349E+0
4.704000E+0,1.526692E+0
4.705000E+0,1.525706E+0
4.706000E+0,1.524719E+0
4.707000E+0,1.523076E+0
4.708000E+0,1.522090E+0
4.709000E+0,1.522090E+0
4.710000E+0,1.521432E+0
4.711000E+0,1.520117E+0
4.712000E+0,1.519460E+0
4.713000E+0,1.518802E+0
4.714000E+0,1.517816E+0
4.715000E+0,1.517816E+0
4.716000E+0,1.516830E+0
4.717000E+0,1.515515E+0
4.718000E+0,1.515186E+0
4.719000E+0,1.513871E+0
4.720000E+0,1.513214E+0
4.721000E+0,1.512556E+0
4.722000E+0,1.512228E+0
4.723000E+0,1.511241E+0
4.724000E+0,1.509927E+0
4.725000E+0,1.508283E+0
4.726000E+0,1.508283E+0
4.727000E+0,1.507297E+0
4.728000E+0,1.506968E+0
4.729000E+0,1.506310E+0
4.730000E+0,1.504996E+0
4.731000E+0,1.504667E+0
4.732000E+0,1.503681E+0
4.733000E+0,1.504009E+0
4.734000E+0,1.501380E+0
4.735000E+0,1.502366E+0
4.736000E+0,1.500722E+0
4.737000E+0,1.500393E+0
4.738000E+0,1.499407E+0
4.739000E+0,1.498750E+0
4.740000E+0,1.498092E+0
4.741000E+0,1.496777E+0
4.742000E+0,1.496777E+0
4.743000E+0,1.496449E+0
4.744000E+0,1.495462E+0
4.745000E+0,1.494476E+0
4.746000E+0,1.494805E+0
4.747000E+0,1.493819E+0
4.748000E+0,1.492832E+0
4.749000E+0,1.491846E+0
4.750000E+0,1.491518E+0
4.751000E+0,1.491189E+0
4.752000E+0,1.490531E+0
4.753000E+0,1.489545E+0
4.754000E+0,1.488888E+0
4.755000E+0,1.487902E+0
4.756000E+0,1.487573E+0
4.757000E+0,1.486587E+0
4.758000E+0,1.486258E+0
4.759000E+0,1.484943E+0
4.760000E+0,1.484943E+0
4.761000E+0,1.484614E+0
4.762000E+0,1.483957E+0
4.763000E+0,1.483299E+0
4.764000E+0,1.482313E+0
4.765000E+0,1.481984E+0
4.766000E+0,1.481656E+0
4.767000E+0,1.480998E+0
4.768000E+0,1.480669E+0
4.769000E+0,1.480012E+0
4.770000E+0,1.479355E+0
4.771000E+0,1.479026E+0
4.772000E+0,1.478040E+0
4.773000E+0,1.477053E+0
4.774000E+0,1.476725E+0
4.775000E+0,1.476067E+0
4.776000E+0,1.475738E+0
4.777000E+0,1.475410E+0
4.778000E+0,1.474095E+0
4.779000E+0,1.474095E+0
4.780000E+0,1.473766E+0
4.781000E+0,1.473109E+0
4.782000E+0,1.472122E+0
4.783000E+0,1.472780E+0
4.784000E+0,1.471465E+0
4.785000E+0,1.471136E+0
4.786000E+0,1.470808E+0
4.787000E+0,1.469493E+0
4.788000E+0,1.469821E+0
4.789000E+0,1.468835E+0
4.790000E+0,1.467191E+0
4.791000E+0,1.468506E+0
4.792000E+0,1.467520E+0
4.793000E+0,1.466534E+0
4.794000E+0,1.466205E+0
4.795000E+0,1.465877E+0
4.796000E+0,1.465548E+0
4.797000E+0,1.465548E+0
4.798000E+0,1.464890E+0
4.799000E+0,1.464562E+0
4.800000E+0,1.464233E+0
4.801000E+0,1.462918E+0
4.802000E+0,1.462589E+0
4.803000E+0,1.462261E+0
4.804000E+0,1.461603E+0
4.805000E+0,1.461603E+0
4.806000E+0,1.461932E+0
4.807000E+0,1.460617E+0
4.808000E+0,1.460617E+0
4.809000E+0,1.459959E+0
4.810000E+0,1.459302E+0
4.811000E+0,1.457987E+0
4.812000E+0,1.458644E+0
4.813000E+0,1.458644E+0
4.814000E+0,1.457987E+0
4.815000E+0,1.457001E+0
4.816000E+0,1.456343E+0
4.817000E+0,1.456672E+0
4.818000E+0,1.455686E+0
4.819000E+0,1.454700E+0
4.820000E+0,1.455028E+0
4.821000E+0,1.455028E+0
4.822000E+0,1.455028E+0
4.823000E+0,1.453713E+0
4.824000E+0,1.454042E+0
4.825000E+0,1.453385E+0
4.826000E+0,1.453385E+0
4.827000E+0,1.452727E+0
4.828000E+0,1.452070E+0
4.829000E+0,1.452399E+0
4.830000E+0,1.452070E+0
4.831000E+0,1.450755E+0
4.832000E+0,1.451084E+0
4.833000E+0,1.451084E+0
4.834000E+0,1.450426E+0
4.835000E+0,1.450426E+0
4.836000E+0,1.450097E+0
4.837000E+0,1.449769E+0
4.838000E+0,1.449440E+0
4.839000E+0,1.449440E+0
4.840000E+0,1.448454E+0
4.841000E+0,1.448125E+0
4.842000E+0,1.448454E+0
4.843000E+0,1.448125E+0
4.844000E+0,1.447139E+0
4.845000E+0,1.447139E+0
4.846000E+0,1.446481E+0
4.847000E+0,1.445166E+0
4.848000E+0,1.445824E+0
4.849000E+0,1.446481E+0
4.850000E+0,1.445495E+0
4.851000E+0,1.445495E+0
4.852000E+0,1.445166E+0
4.853000E+0,1.444838E+0
4.854000E+0,1.444509E+0
4.855000E+0,1.444509E+0
4.856000E+0,1.443852E+0
4.857000E+0,1.443523E+0
4.858000E+0,1.443523E+0
4.859000E+0,1.442865E+0
4.860000E+0,1.442537E+0
4.861000E+0,1.442537E+0
4.862000E+0,1.442865E+0
4.863000E+0,1.442537E+0
4.864000E+0,1.441879E+0
4.865000E+0,1.441550E+0
4.866000E+0,1.441550E+0
4.867000E+0,1.441222E+0
4.868000E+0,1.441222E+0
4.869000E+0,1.440893E+0
4.870000E+0,1.440893E+0
4.871000E+0,1.440236E+0
4.872000E+0,1.440564E+0
4.873000E+0,1.439907E+0
4.874000E+0,1.440564E+0
4.875000E+0,1.440564E+0
4.876000E+0,1.438921E+0
4.877000E+0,1.439578E+0
4.878000E+0,1.440236E+0
4.879000E+0,1.439249E+0
4.880000E+0,1.438921E+0
4.881000E+0,1.438592E+0
4.882000E+0,1.438592E+0
4.883000E+0,1.439249E+0
4.884000E+0,1.438592E+0
4.885000E+0,1.438921E+0
4.886000E+0,1.437934E+0
4.887000E+0,1.438592E+0
4.888000E+0,1.437934E+0
4.889000E+0,1.437934E+0
4.890000E+0,1.437277E+0
4.891000E+0,1.437934E+0
4.892000E+0,1.436619E+0
4.893000E+0,1.436948E+0
4.894000E+0,1.436619E+0
4.895000E+0,1.436619E+0
4.896000E+0,1.436948E+0
4.897000E+0,1.436619E+0
4.898000E+0,1.436948E+0
4.899000E+0,1.436291E+0
4.900000E+0,1.436619E+0
4.901000E+0,1.435962E+0
4.902000E+0,1.435633E+0
4.903000E+0,1.435962E+0
4.904000E+0,1.435633E+0
4.905000E+0,1.435305E+0
4.906000E+0,1.434976E+0
4.907000E+0,1.435633E+0
4.908000E+0,1.434976E+0
4.909000E+0,1.434647E+0
4.910000E+0,1.434647E+0
4.911000E+0,1.434647E+0
4.912000E+0,1.434318E+0
4.913000E+0,1.434647E+0
4.914000E+0,1.434647E+0
4.915000E+0,1.434647E+0
4.916000E+0,1.434647E+0
4.917000E+0,1.433990E+0
4.918000E+0,1.434647E+0
4.919000E+0,1.434318E+0
4.920000E+0,1.433661E+0
4.921000E+0,1.433661E+0
4.922000E+0,1.433661E+0
4.923000E+0,1.433990E+0
4.924000E+0,1.433661E+0
4.925000E+0,1.434647E+0
4.926000E+0,1.433661E+0
4.927000E+0,1.433661E+0
4.928000E+0,1.433661E+0
4.929000E+0,1.433990E+0
4.930000E+0,1.433661E+0
4.931000E+0,1.433661E+0
4.932000E+0,1.433990E+0
4.933000E+0,1.434647E+0
4.934000E+0,1.433990E+0
4.935000E+0,1.433661E+0
4.936000E+0,1.433332E+0
4.937000E+0,1.433332E+0
4.938000E+0,1.433332E+0
4.939000E+0,1.433990E+0
4.940000E+0,1.433332E+0
4.941000E+0,1.433990E+0
4.942000E+0,1.433661E+0
4.943000E+0,1.433332E+0
4.944000E+0,1.433661E+0
4.945000E+0,1.433990E+0
4.946000E+0,1.433661E+0
4.947000E+0,1.433332E+0
4.948000E+0,1.434318E+0
4.949000E+0,1.434318E+0
4.950000E+0,1.433990E+0
4.951000E+0,1.434318E+0
4.952000E+0,1.434318E+0
4.953000E+0,1.434647E+0
4.954000E+0,1.433661E+0
4.955000E+0,1.433990E+0
4.956000E+0,1.433661E+0
4.957000E+0,1.433990E+0
4.958000E+0,1.434647E+0
4.959000E+0,1.433990E+0
4.960000E+0,1.433990E+0
4.961000E+0,1.434318E+0
4.962000E+0,1.434647E+0
4.963000E+0,1.434647E+0
4.964000E+0,1.435305E+0
4.965000E+0,1.434976E+0
4.966000E+0,1.435633E+0
4.967000E+0,1.435962E+0
4.968000E+0,1.435305E+0
4.969000E+0,1.435633E+0
4.970000E+0,1.435633E+0
4.971000E+0,1.435305E+0
4.972000E+0,1.436291E+0
4.973000E+0,1.435962E+0
4.974000E+0,1.436291E+0
4.975000E+0,1.435962E+0
4.976000E+0,1.435962E+0
4.977000E+0,1.435633E+0
4.978000E+0,1.436619E+0
4.979000E+0,1.436948E+0
4.980000E+0,1.436948E+0
4.981000E+0,1.437277E+0
4.982000E+0,1.436619E+0
4.983000E+0,1.437934E+0
4.984000E+0,1.437606E+0
4.985000E+0,1.438592E+0
4.986000E+0,1.437934E+0
4.987000E+0,1.437934E+0
4.988000E+0,1.437934E+0
4.989000E+0,1.438592E+0
4.990000E+0,1.438263E+0
4.991000E+0,1.438921E+0
4.992000E+0,1.439249E+0
4.993000E+0,1.438921E+0
4.994000E+0,1.439249E+0
4.995000E+0,1.439578E+0
4.996000E+0,1.439578E+0
4.997000E+0,1.439907E+0
4.998000E+0,1.440564E+0
